Czas,AbsSum,Sum
41.736,0.01567891707002412,-0.01567891707002412
41.737,0.009872477207606745,-0.009872477207606745
41.738,0.0034670070622639907,-0.0034670070622639907
41.739,0.002377709870951458,0.002377709870951458
41.74,0.006711192019657024,0.006711192019657024
41.741,0.008981876130801286,0.008981876130801286
41.742,0.009115540725264151,0.009115540725264151
41.742999999999995,0.007475649372136198,0.007475649372136198
41.744,0.004728747854006352,0.004728747854006352
41.745,0.0016577992303819403,0.0016577992303819403
41.745999999999995,0.0010273728882642633,-0.0010273728882642633
41.747,0.002839400595482828,-0.002839400595482828
41.748,0.0035936626801835775,-0.0035936626801835775
41.748999999999995,0.003408573603373077,-0.003408573603373077
41.75,0.002632162119339394,-0.002632162119339394
41.751,0.0017155214960022285,-0.0017155214960022285
41.751999999999995,0.0010638474986389497,-0.0010638474986389497
41.753,0.0009010007303334681,-0.0009010007303334681
41.754,0.001182828529656713,-0.001182828529656713
41.754999999999995,0.0015866530443877733,-0.0015866530443877733
41.756,0.0015888446688980312,-0.0015888446688980312
41.757,0.0006206435446341717,-0.0006206435446341717
41.757999999999996,0.001731478766380349,0.001731478766380349
41.759,0.005533983619321561,0.005533983619321561
41.76,0.01038348338223079,0.01038348338223079
41.760999999999996,0.015403698614911225,0.015403698614911225
41.762,0.019385013357135685,0.019385013357135685
41.763,0.021049243984938314,0.021049243984938314
41.763999999999996,0.0193807255840227,0.0193807255840227
41.765,0.013935743722088388,0.013935743722088388
41.766,0.005037353303387472,0.005037353303387472
41.766999999999996,0.0062132688246980565,-0.0062132688246980565
41.768,0.01812904049219594,-0.01812904049219594
41.769,0.028793004336953577,-0.028793004336953577
41.769999999999996,0.036486300324967504,-0.036486300324967504
41.771,0.04006983546872225,-0.04006983546872225
41.772,0.03921142094788552,-0.03921142094788552
41.772999999999996,0.03439542367288125,-0.03439542367288125
41.774,0.02671909456659682,-0.02671909456659682
41.775,0.0175468822315133,-0.0175468822315133
41.775999999999996,0.00813826672607274,-0.00813826672607274
41.777,0.0006300037209571365,0.0006300037209571365
41.778,0.008362786453507033,0.008362786453507033
41.778999999999996,0.015048275363871577,0.015048275363871577
41.78,0.02081733938584106,0.02081733938584106
41.781,0.025668641192187022,0.025668641192187022
41.782,0.029281378558435413,0.029281378558435413
41.783,0.03100506277321362,0.03100506277321362
41.784,0.030047626172332906,0.030047626172332906
41.785,0.025803384975891235,0.025803384975891235
41.786,0.018200412138252565,0.018200412138252565
41.787,0.007926918406460051,0.007926918406460051
41.788,0.0035718472044259817,-0.0035718472044259817
41.789,0.01435966173652057,-0.01435966173652057
41.79,0.022478773725028257,-0.022478773725028257
41.791,0.026484871318550197,-0.026484871318550197
41.792,0.025875306234867383,-0.025875306234867383
41.793,0.021262375198273932,-0.021262375198273932
41.794,0.014220329484197472,-0.014220329484197472
41.795,0.006839795428779549,-0.006839795428779549
41.796,0.001120988382130435,-0.001120988382130435
41.797,0.001606471895929777,0.001606471895929777
41.798,0.0010545800471492446,0.0010545800471492446
41.799,0.001977520328447499,-0.001977520328447499
41.8,0.005894413953424907,-0.005894413953424907
41.801,0.008833727326778047,-0.008833727326778047
41.802,0.009260488810052493,-0.009260488810052493
41.803,0.00643659075142073,-0.00643659075142073
41.804,0.0006225194463324096,-0.0006225194463324096
41.805,0.007038082486097497,0.007038082486097497
41.806,0.014894027124660005,0.014894027124660005
41.806999999999995,0.021283081296242994,0.021283081296242994
41.808,0.024979701272890467,0.024979701272890467
41.809,0.025454481955105943,0.025454481955105943
41.809999999999995,0.022883073782261818,0.022883073782261818
41.811,0.01793669709544864,0.01793669709544864
41.812,0.01146248715445336,0.01146248715445336
41.812999999999995,0.004192191363085107,0.004192191363085107
41.814,0.0034073679968880046,-0.0034073679968880046
41.815,0.011097455272715138,-0.011097455272715138
41.815999999999995,0.01868381204715277,-0.01868381204715277
41.817,0.02579159316982314,-0.02579159316982314
41.818,0.03172489048787356,-0.03172489048787356
41.818999999999996,0.03550382609850473,-0.03550382609850473
41.82,0.03609775804252194,-0.03609775804252194
41.821,0.03278636283102744,-0.03278636283102744
41.821999999999996,0.02551589589362652,-0.02551589589362652
41.823,0.01510272405970065,-0.01510272405970065
41.824,0.0031789001046997915,-0.0031789001046997915
41.824999999999996,0.008138379666059622,0.008138379666059622
41.826,0.01677117729022722,0.01677117729022722
41.827,0.02124034436085019,0.02124034436085019
41.827999999999996,0.02107852620434593,0.02107852620434593
41.829,0.01695619192196466,0.01695619192196466
41.83,0.010472743405640236,0.010472743405640236
41.830999999999996,0.0036765268912489547,0.0036765268912489547
41.832,0.0015311075881750092,-0.0015311075881750092
41.833,0.003914580863780133,-0.003914580863780133
41.833999999999996,0.003181849756995844,-0.003181849756995844
41.835,5.655454226072971e-05,5.655454226072971e-05
41.836,0.004612998711395345,0.004612998711395345
41.836999999999996,0.009201169246015564,0.009201169246015564
41.838,0.012888056189220393,0.012888056189220393
41.839,0.01535841524640835,0.01535841524640835
41.839999999999996,0.01690726586109895,0.01690726586109895
41.841,0.01818171256080038,0.01818171256080038
41.842,0.019788428782295822,0.019788428782295822
41.842999999999996,0.0219320809631387,0.0219320809631387
41.844,0.0242349143863768,0.0242349143863768
41.845,0.02581498357847144,0.02581498357847144
41.846,0.02559814964705139,0.02559814964705139
41.847,0.022746164654688407,0.022746164654688407
41.848,0.017035392762953894,0.017035392762953894
41.849,0.009036310232292203,0.009036310232292203
41.85,1.7103804379167477e-05,1.7103804379167477e-05
41.851,0.008402271900926118,-0.008402271900926118
41.852,0.014725470257825845,-0.014725470257825845
41.853,0.018015700944076358,-0.018015700944076358
41.854,0.01813823919547041,-0.01813823919547041
41.855,0.015728284258483827,-0.015728284258483827
41.856,0.011905866978041987,-0.011905866978041987
41.857,0.007853095347444236,-0.007853095347444236
41.858,0.004417378734735649,-0.004417378734735649
41.859,0.001888873601377903,-0.001888873601377903
41.86,2.7426828800481175e-05,-2.7426828800481175e-05
41.861,0.0016875527522230032,0.0016875527522230032
41.862,0.003701334673298898,0.003701334673298898
41.863,0.006082141953068885,0.006082141953068885
41.864,0.008410804399658538,0.008410804399658538
41.865,0.009918970906943454,0.009918970906943454
41.866,0.0098264558965566,0.0098264558965566
41.867,0.007737973117005154,0.007737973117005154
41.867999999999995,0.00392322958887758,0.00392322958887758
41.869,0.0006602413024857835,-0.0006602413024857835
41.87,0.00464530711180862,-0.00464530711180862
41.870999999999995,0.00675546379644352,-0.00675546379644352
41.872,0.006346869404500485,-0.006346869404500485
41.873,0.0037746474602602573,-0.0037746474602602573
41.873999999999995,0.00041203519804636955,-0.00041203519804636955
41.875,0.0017310726315237044,0.0017310726315237044
41.876,0.0006939271315017663,0.0006939271315017663
41.876999999999995,0.004667676999841505,-0.004667676999841505
41.878,0.01410872084015272,-0.01410872084015272
41.879,0.025848455964877934,-0.025848455964877934
41.879999999999995,0.03694790302753178,-0.03694790302753178
41.881,0.044129809521671746,-0.044129809521671746
41.882,0.04479667204247946,-0.04479667204247946
41.882999999999996,0.037915728436291825,-0.037915728436291825
41.884,0.02446443291288944,-0.02446443291288944
41.885,0.007262741930121458,-0.007262741930121458
41.885999999999996,0.009782237197585027,0.009782237197585027
41.887,0.022795033701817707,0.022795033701817707
41.888,0.029060927399282937,0.029060927399282937
41.888999999999996,0.027799980514295934,0.027799980514295934
41.89,0.020332252448203646,0.020332252448203646
41.891,0.009580384422324407,0.009580384422324407
41.891999999999996,0.0009232951380887348,-0.0009232951380887348
41.893,0.00819169571169394,-0.00819169571169394
41.894,0.010712671511058616,-0.010712671511058616
41.894999999999996,0.008844437832021296,-0.008844437832021296
41.896,0.004551659395450325,-0.004551659395450325
41.897,0.0005840520168882229,-0.0005840520168882229
41.897999999999996,0.0006091220177920459,0.0006091220177920459
41.899,0.002154744994500995,-0.002154744994500995
41.9,0.008285578734694777,-0.008285578734694777
41.900999999999996,0.015555441166337516,-0.015555441166337516
41.902,0.02083267426252188,-0.02083267426252188
41.903,0.02116661038650158,-0.02116661038650158
41.903999999999996,0.014853185021033494,-0.014853185021033494
41.905,0.0021182373370163465,-0.0021182373370163465
41.906,0.014814271498596947,0.014814271498596947
41.907,0.03229360999945337,0.03229360999945337
41.908,0.04626400024105863,0.04626400024105863
41.909,0.05340163347987686,0.05340163347987686
41.91,0.052002350917121506,0.052002350917121506
41.911,0.04234956635589471,0.04234956635589471
41.912,0.026474446886358412,0.026474446886358412
41.913,0.007425847147881374,0.007425847147881374
41.914,0.011675483259232877,-0.011675483259232877
41.915,0.0284680120029865,-0.0284680120029865
41.916,0.0417965927044065,-0.0417965927044065
41.917,0.05165906814160599,-0.05165906814160599
41.918,0.05872289605196264,-0.05872289605196264
41.919,0.06363669049044879,-0.06363669049044879
41.92,0.06642900559243209,-0.06642900559243209
41.921,0.0662454829095083,-0.0662454829095083
41.922,0.06154292491545097,-0.06154292491545097
41.923,0.050684195908052565,-0.050684195908052565
41.924,0.0327241331082732,-0.0327241331082732
41.925,0.008098188533504237,-0.008098188533504237
41.926,0.021050924657228735,0.021050924657228735
41.927,0.05105713454413181,0.05105713454413181
41.928,0.07740645439952099,0.07740645439952099
41.929,0.09572380567393912,0.09572380567393912
41.93,0.10279017697132689,0.10279017697132689
41.931,0.09730010766961443,0.09730010766961443
41.931999999999995,0.08015200609235335,0.08015200609235335
41.933,0.054207041852230166,0.054207041852230166
41.934,0.023607217390239844,0.023607217390239844
41.934999999999995,0.007139975951449674,-0.007139975951449674
41.936,0.03405774223561483,-0.03405774223561483
41.937,0.054358272048771666,-0.054358272048771666
41.937999999999995,0.0667381986104672,-0.0667381986104672
41.939,0.07130343889712244,-0.07130343889712244
41.94,0.06921630817405258,-0.06921630817405258
41.940999999999995,0.06221285774549915,-0.06221285774549915
41.942,0.052138269663154366,-0.052138269663154366
41.943,0.04060364021018449,-0.04060364021018449
41.943999999999996,0.02880303403120568,-0.02880303403120568
41.945,0.017472359536640714,-0.017472359536640714
41.946,0.0069403956207709965,-0.0069403956207709965
41.946999999999996,0.002778150485841333,0.002778150485841333
41.948,0.011876763866349234,0.011876763866349234
41.949,0.020642731284596767,0.020642731284596767
41.949999999999996,0.029326046285025997,0.029326046285025997
41.951,0.03799091577055071,0.03799091577055071
41.952,0.046372183135142596,0.046372183135142596
41.952999999999996,0.0537833670425244,0.0537833670425244
41.954,0.05913200577219541,0.05913200577219541
41.955,0.061080608518774594,0.061080608518774594
41.955999999999996,0.0583485983978116,0.0583485983978116
41.957,0.05009580123677557,0.05009580123677557
41.958,0.03628284975072912,0.03628284975072912
41.958999999999996,0.017889117001106146,0.017889117001106146
41.96,0.0031046020079322735,-0.0031046020079322735
41.961,0.023997979392202055,-0.023997979392202055
41.961999999999996,0.041866113995682484,-0.041866113995682484
41.963,0.05414577933013554,-0.05414577933013554
41.964,0.05915732384835553,-0.05915732384835553
41.964999999999996,0.056422884237830574,-0.056422884237830574
41.966,0.04670371523777036,-0.04670371523777036
41.967,0.031766059834316754,-0.031766059834316754
41.967999999999996,0.0139653079663507,-0.0139653079663507
41.969,0.0042163921121352865,0.0042163921121352865
41.97,0.02054880736453849,0.02054880736453849
41.971,0.033269593459647785,0.033269593459647785
41.972,0.04113425851173927,0.04113425851173927
41.973,0.04336534610921833,0.04336534610921833
41.974,0.03959888115247595,0.03959888115247595
41.975,0.029909257541477236,0.029909257541477236
41.976,0.014934067899215376,0.014934067899215376
41.977,0.003956427952366821,-0.003956427952366821
41.978,0.024559635803970848,-0.024559635803970848
41.979,0.04393670815593975,-0.04393670815593975
41.98,0.058781862228906856,-0.058781862228906856
41.981,0.0660458204682938,-0.0660458204682938
41.982,0.06368281096947645,-0.06368281096947645
41.983,0.05130766986904093,-0.05130766986904093
41.984,0.03053255464863151,-0.03053255464863151
41.985,0.004817781934272857,-0.004817781934272857
41.986,0.02119469900125102,0.02119469900125102
41.987,0.04273360850733324,0.04273360850733324
41.988,0.05606693391559577,0.05606693391559577
41.989,0.05945464424282994,0.05945464424282994
41.99,0.053593414529728704,0.053593414529728704
41.991,0.04139809771931303,0.04139809771931303
41.992,0.02715900187223746,0.02715900187223746
41.992999999999995,0.015305206039386685,0.015305206039386685
41.994,0.009130126349598745,0.009130126349598745
41.995,0.00985383981656666,0.00985383981656666
41.995999999999995,0.016299165624354538,0.016299165624354538
41.997,0.025274755071607168,0.025274755071607168
41.998,0.032546239867009365,0.032546239867009365
41.998999999999995,0.03410277125756502,0.03410277125756502
42.0,0.02734498269703081,0.02734498269703081
42.001,0.011854836987413627,0.011854836987413627
42.001999999999995,0.010456423039430333,-0.010456423039430333
42.003,0.03583529496093698,-0.03583529496093698
42.004,0.05963746630563869,-0.05963746630563869
42.004999999999995,0.07745324459438542,-0.07745324459438542
42.006,0.08609308556720023,-0.08609308556720023
42.007,0.08419173463019146,-0.08419173463019146
42.007999999999996,0.07232597803141867,-0.07232597803141867
42.009,0.05269154407260695,-0.05269154407260695
42.01,0.02849937674773848,-0.02849937674773848
42.010999999999996,0.0032976564735233806,-0.0032976564735233806
42.012,0.01960193639950272,0.01960193639950272
42.013,0.03749595302566432,0.03749595302566432
42.013999999999996,0.04845699010552874,0.04845699010552874
42.015,0.05136782545382934,0.05136782545382934
42.016,0.045915476790969655,0.045915476790969655
42.016999999999996,0.032610596269287966,0.032610596269287966
42.018,0.012836888505025741,0.012836888505025741
42.019,0.011126272032316954,-0.011126272032316954
42.019999999999996,0.03619634392127648,-0.03619634392127648
42.021,0.05876796766853363,-0.05876796766853363
42.022,0.07519475336188271,-0.07519475336188271
42.022999999999996,0.08240603295058518,-0.08240603295058518
42.024,0.07852352951429356,-0.07852352951429356
42.025,0.06331495827138449,-0.06331495827138449
42.025999999999996,0.03834838855167039,-0.03834838855167039
42.027,0.006786104351224356,-0.006786104351224356
42.028,0.027145275424310042,0.027145275424310042
42.028999999999996,0.05888420592432083,0.05888420592432083
42.03,0.08429154895896532,0.08429154895896532
42.031,0.10027105395597374,0.10027105395597374
42.032,0.10514317701027914,0.10514317701027914
42.033,0.09874226011952077,0.09874226011952077
42.034,0.08228111495098252,0.08228111495098252
42.035,0.0580696264305123,0.0580696264305123
42.036,0.029174566379098273,0.029174566379098273
42.037,0.0009254741440415507,-0.0009254741440415507
42.038,0.02868077538397961,-0.02868077538397961
42.039,0.0508271861642874,-0.0508271861642874
42.04,0.0647757992240657,-0.0647757992240657
42.041,0.06901517806860842,-0.06901517806860842
42.042,0.06345195770864102,-0.06345195770864102
42.043,0.049574867295884596,-0.049574867295884596
42.044,0.030327753602669327,-0.030327753602669327
42.045,0.00963287797107943,-0.00963287797107943
42.046,0.008392535500953473,0.008392535500953473
42.047,0.02036752126081728,0.02036752126081728
42.048,0.024481283767145375,0.024481283767145375
42.049,0.020968705793953706,0.020968705793953706
42.05,0.012039756381058319,0.012039756381058319
42.051,0.0012258666674417667,0.0012258666674417667
42.052,0.007708352570203774,-0.007708352570203774
42.053,0.011980985566858832,-0.011980985566858832
42.054,0.010755960291193937,-0.010755960291193937
42.055,0.005520094506286832,-0.005520094506286832
42.056,0.00029635414824986077,0.00029635414824986077
42.056999999999995,0.00239198394880893,0.00239198394880893
42.058,0.002936144539061435,-0.002936144539061435
42.059,0.01737292023040142,-0.01737292023040142
42.059999999999995,0.03967867969289076,-0.03967867969289076
42.061,0.06562509985938979,-0.06562509985938979
42.062,0.08885544757635772,-0.08885544757635772
42.062999999999995,0.10246560968072364,-0.10246560968072364
42.064,0.1008696318897914,-0.1008696318897914
42.065,0.08141030419518822,-0.08141030419518822
42.065999999999995,0.04523791272646261,-0.04523791272646261
42.067,0.002808456121203869,0.002808456121203869
42.068,0.05528835631153295,0.05528835631153295
42.068999999999996,0.10390303282802829,0.10390303282802829
42.07,0.1413960381580675,0.1413960381580675
42.071,0.16308471742803035,0.16308471742803035
42.071999999999996,0.16762879469244304,0.16762879469244304
42.073,0.15688961405953075,0.15688961405953075
42.074,0.1350121791326141,0.1350121791326141
42.074999999999996,0.10708140702855862,0.10708140702855862
42.076,0.07779639293284404,0.07779639293284404
42.077,0.05054939376151371,0.05054939376151371
42.077999999999996,0.0271182055917918,0.0271182055917918
42.079,0.007949646683666644,0.007949646683666644
42.08,0.007189402568441744,-0.007189402568441744
42.080999999999996,0.018520461462892903,-0.018520461462892903
42.082,0.025823960037116848,-0.025823960037116848
42.083,0.02843851202435876,-0.02843851202435876
42.083999999999996,0.025664469364645375,-0.025664469364645375
42.085,0.017374521402825353,-0.017374521402825353
42.086,0.004544206993206315,-0.004544206993206315
42.086999999999996,0.01055986835152841,0.01055986835152841
42.088,0.024667890092162737,0.024667890092162737
42.089,0.03422209406834465,0.03422209406834465
42.089999999999996,0.036303076261461835,0.036303076261461835
42.091,0.029460515847891864,0.029460515847891864
42.092,0.014162414587638932,0.014162414587638932
42.092999999999996,0.00729852757636322,-0.00729852757636322
42.094,0.03141948238395747,-0.03141948238395747
42.095,0.05442496615394118,-0.05442496615394118
42.096,0.07322300595492393,-0.07322300595492393
42.097,0.08607655970968148,-0.08607655970968148
42.098,0.09279268004722128,-0.09279268004722128
42.099,0.09440369837900818,-0.09440369837900818
42.1,0.09249027202073705,-0.09249027202073705
42.101,0.0884133178366841,-0.0884133178366841
42.102,0.08274069058832359,-0.08274069058832359
42.103,0.07507105098206773,-0.07507105098206773
42.104,0.06430444170306075,-0.06430444170306075
42.105,0.04924338851531141,-0.04924338851531141
42.106,0.02928961958322793,-0.02928961958322793
42.107,0.004970940732801447,-0.004970940732801447
42.108,0.02190128360882878,0.02190128360882878
42.109,0.048507876122209935,0.048507876122209935
42.11,0.07164010325926415,0.07164010325926415
42.111,0.08845246505725304,0.08845246505725304
42.112,0.09710281511798377,0.09710281511798377
42.113,0.09708248180999214,0.09708248180999214
42.114,0.08915633899561337,0.08915633899561337
42.115,0.07497201359492377,0.07497201359492377
42.116,0.05650689986740203,0.05650689986740203
42.117,0.03556265457649016,0.03556265457649016
42.117999999999995,0.01347756417993292,0.01347756417993292
42.119,0.008873750113490874,-0.008873750113490874
42.12,0.03084519173339275,-0.03084519173339275
42.120999999999995,0.05169471001861076,-0.05169471001861076
42.122,0.07034774570546148,-0.07034774570546148
42.123,0.08538326965645003,-0.08538326965645003
42.123999999999995,0.09527877198913678,-0.09527877198913678
42.125,0.09883603178766032,-0.09883603178766032
42.126,0.09562437717207581,-0.09562437717207581
42.126999999999995,0.08625665603454685,-0.08625665603454685
42.128,0.07236503428694868,-0.07236503428694868
42.129,0.056250558283866554,-0.056250558283866554
42.129999999999995,0.04030240193353428,-0.04030240193353428
42.131,0.026373749268289143,-0.026373749268289143
42.132,0.015326193513295469,-0.015326193513295469
42.132999999999996,0.0069024308912340815,-0.0069024308912340815
42.134,2.4591435890818004e-05,2.4591435890818004e-05
42.135,0.006909395461495516,0.006909395461495516
42.135999999999996,0.01488592997261847,0.01488592997261847
42.137,0.024240099775213936,0.024240099775213936
42.138,0.03418879935786647,0.03418879935786647
42.138999999999996,0.043045831228202235,0.043045831228202235
42.14,0.048721827244640234,0.048721827244640234
42.141,0.04939133412003036,0.04939133412003036
42.141999999999996,0.04410517840220805,0.04410517840220805
42.143,0.03314820591668258,0.03314820591668258
42.144,0.01803200836304429,0.01803200836304429
42.144999999999996,0.001136178446651697,0.001136178446651697
42.146,0.014874369653552728,-0.014874369653552728
42.147,0.027663768816490537,-0.027663768816490537
42.147999999999996,0.03568393286467176,-0.03568393286467176
42.149,0.03835945942476436,-0.03835945942476436
42.15,0.035985453087201975,-0.035985453087201975
42.150999999999996,0.029425587287807576,-0.029425587287807576
42.152,0.019757090064502554,-0.019757090064502554
42.153,0.008007628632314509,-0.008007628632314509
42.153999999999996,0.0049297102683667215,0.0049297102683667215
42.155,0.018207226704877278,0.018207226704877278
42.156,0.030847194403184952,0.030847194403184952
42.157,0.041612028863286354,0.041612028863286354
42.158,0.049037110798811435,0.049037110798811435
42.159,0.05167495519602215,0.05167495519602215
42.16,0.04850360342755272,0.04850360342755272
42.161,0.03936663338237001,0.03936663338237001
42.162,0.025272101390987387,0.025272101390987387
42.163,0.008402083148774078,0.008402083148774078
42.164,0.008231281997268268,-0.008231281997268268
42.165,0.021430304909478178,-0.021430304909478178
42.166,0.02859437476409052,-0.02859437476409052
42.167,0.028415632876674052,-0.028415632876674052
42.168,0.021271221126578574,-0.021271221126578574
42.169,0.00917592328511358,-0.00917592328511358
42.17,0.00471295931598778,0.00471295931598778
42.171,0.01691137540253645,0.01691137540253645
42.172,0.024518696857214306,0.024518696857214306
42.173,0.025964988931758082,0.025964988931758082
42.174,0.021384934046384398,0.021384934046384398
42.175,0.012517730135149625,0.012517730135149625
42.176,0.0021703541773730587,0.0021703541773730587
42.177,0.006594577219534292,-0.006594577219534292
42.178,0.011312199183140656,-0.011312199183140656
42.179,0.010773452360635418,-0.010773452360635418
42.18,0.0053164488912300955,-0.0053164488912300955
42.181,0.003310243207747857,0.003310243207747857
42.181999999999995,0.012453798788067974,0.012453798788067974
42.183,0.019279106518931104,0.019279106518931104
42.184,0.02150713541712419,0.02150713541712419
42.184999999999995,0.017981966141547068,0.017981966141547068
42.186,0.008938371459839816,0.008938371459839816
42.187,0.004072267989270199,-0.004072267989270199
42.187999999999995,0.01855373487469358,-0.01855373487469358
42.189,0.031626093371412076,-0.031626093371412076
42.19,0.04063783132858154,-0.04063783132858154
42.190999999999995,0.0436963243102402,-0.0436963243102402
42.192,0.04001710032004534,-0.04001710032004534
42.193,0.03004024738520918,-0.03004024738520918
42.193999999999996,0.015311943054142036,-0.015311943054142036
42.195,0.0018290301437648704,0.0018290301437648704
42.196,0.018690757759472692,0.018690757759472692
42.196999999999996,0.03270945306568853,0.03270945306568853
42.198,0.04188647938014886,0.04188647938014886
42.199,0.04510565647645193,0.04510565647645193
42.199999999999996,0.04227734225292226,0.04227734225292226
42.201,0.03428747584589059,0.03428747584589059
42.202,0.022767428324681357,0.022767428324681357
42.202999999999996,0.009737572943086883,0.009737572943086883
42.204,0.002794702226628571,-0.002794702226628571
42.205,0.013191719353231757,-0.013191719353231757
42.205999999999996,0.02041881330418712,-0.02041881330418712
42.207,0.02411030249912084,-0.02411030249912084
42.208,0.024471723458141897,-0.024471723458141897
42.208999999999996,0.02206885925079919,-0.02206885925079919
42.21,0.017585292121506647,-0.017585292121506647
42.211,0.011634473874484772,-0.011634473874484772
42.211999999999996,0.004686917744763596,-0.004686917744763596
42.213,0.0028742990827450607,0.0028742990827450607
42.214,0.010609831516400482,0.010609831516400482
42.214999999999996,0.017872004616553756,0.017872004616553756
42.216,0.023734566695631943,0.023734566695631943
42.217,0.027069274656526324,0.027069274656526324
42.217999999999996,0.026780374687600708,0.026780374687600708
42.219,0.02214323801908724,0.02214323801908724
42.22,0.013141184925112438,0.013141184925112438
42.221,0.0006755772602009279,0.0006755772602009279
42.222,0.01345120637692439,-0.01345120637692439
42.223,0.026816974865402507,-0.026816974865402507
42.224,0.03687895437066783,-0.03687895437066783
42.225,0.04156902381770689,-0.04156902381770689
42.226,0.03982085788641627,-0.03982085788641627
42.227,0.03187292336096466,-0.03187292336096466
42.228,0.019249531439762782,-0.019249531439762782
42.229,0.004413782925673577,-0.004413782925673577
42.23,0.009817313468721547,0.009817313468721547
42.231,0.02093491636503176,0.02093491636503176
42.232,0.027295540912807757,0.027295540912807757
42.233,0.02842567342953645,0.02842567342953645
42.234,0.02500495833495398,0.02500495833495398
42.235,0.01855649359228917,0.01855649359228917
42.236,0.010957118111609335,0.010957118111609335
42.237,0.003925282470902895,0.003925282470902895
42.238,0.0013635446498428219,-0.0013635446498428219
42.239,0.004438790729647461,-0.004438790729647461
42.24,0.005460031917839735,-0.005460031917839735
42.241,0.004970272991242112,-0.004970272991242112
42.242,0.003591492585290905,-0.003591492585290905
42.242999999999995,0.0017818928149209174,-0.0017818928149209174
42.244,0.0002637318256242877,0.0002637318256242877
42.245,0.0025538653130784796,0.0025538653130784796
42.245999999999995,0.00512987646188723,0.00512987646188723
42.247,0.007877529105220207,0.007877529105220207
42.248,0.01041653443148661,0.01041653443148661
42.248999999999995,0.012129236079699074,0.012129236079699074
42.25,0.012329835816525254,0.012329835816525254
42.251,0.010514724520776992,0.010514724520776992
42.251999999999995,0.006596187378658651,0.006596187378658651
42.253,0.0010211120277081281,0.0010211120277081281
42.254,0.005285724882895073,-0.005285724882895073
42.254999999999995,0.011151249840926669,-0.011151249840926669
42.256,0.01548909080028264,-0.01548909080028264
42.257,0.017629705780729095,-0.017629705780729095
42.257999999999996,0.017530992694725394,-0.017530992694725394
42.259,0.01579134148068372,-0.01579134148068372
42.26,0.013452504816750305,-0.013452504816750305
42.260999999999996,0.01165129696834122,-0.01165129696834122
42.262,0.01123201556268835,-0.01123201556268835
42.263,0.012447103554731349,-0.012447103554731349
42.263999999999996,0.014846342236423704,-0.014846342236423704
42.265,0.017393989736988573,-0.017393989736988573
42.266,0.018779387034638665,-0.018779387034638665
42.266999999999996,0.01782443100324443,-0.01782443100324443
42.268,0.013861321957369773,-0.013861321957369773
42.269,0.006965228804217665,-0.006965228804217665
42.269999999999996,0.0020259450652482724,0.0020259450652482724
42.271,0.011705453034131447,0.011705453034131447
42.272,0.02044192845745551,0.02044192845745551
42.272999999999996,0.02676985990107909,0.02676985990107909
42.274,0.02971627777941806,0.02971627777941806
42.275,0.02898168656826851,0.02898168656826851
42.275999999999996,0.02494347142789536,0.02494347142789536
42.277,0.01850410906745744,0.01850410906745744
42.278,0.01084673241785713,0.01084673241785713
42.278999999999996,0.00317566845353729,0.00317566845353729
42.28,0.003491933632198588,-0.003491933632198588
42.281,0.008447370400785892,-0.008447370400785892
42.282,0.011323697050298816,-0.011323697050298816
42.283,0.012066894328496855,-0.012066894328496855
42.284,0.010880387944379387,-0.010880387944379387
42.285,0.008170524102552607,-0.008170524102552607
42.286,0.004501874288825131,-0.004501874288825131
42.287,0.0005524053193081516,-0.0005524053193081516
42.288,0.00295048401543223,0.00295048401543223
42.289,0.005326456964629201,0.005326456964629201
42.29,0.006066684576515177,0.006066684576515177
42.291,0.004959682623873048,0.004959682623873048
42.292,0.002176905035199389,0.002176905035199389
42.293,0.0017229450832073078,-0.0017229450832073078
42.294,0.005892981990463572,-0.005892981990463572
42.295,0.009390361230215076,-0.009390361230215076
42.296,0.01141690311466811,-0.01141690311466811
42.297,0.011539879585199853,-0.011539879585199853
42.298,0.009822620546167851,-0.009822620546167851
42.299,0.006816977048825004,-0.006816977048825004
42.3,0.0034107840780947286,-0.0034107840780947286
42.301,0.0005702271730013894,-0.0005702271730013894
42.302,0.0009465564736600157,0.0009465564736600157
42.303,0.0008154795745814345,0.0008154795745814345
42.304,0.0007606614746199801,-0.0007606614746199801
42.305,0.003124004428943086,-0.003124004428943086
42.306,0.005376536152796196,-0.005376536152796196
42.306999999999995,0.006669403100947081,-0.006669403100947081
42.308,0.006472785224711978,-0.006472785224711978
42.309,0.0047383606409366385,-0.0047383606409366385
42.309999999999995,0.0019017954253703244,-0.0019017954253703244
42.311,0.001273919922265094,0.001273919922265094
42.312,0.003959991620944979,0.003959991620944979
42.312999999999995,0.0055385230884947,0.0055385230884947
42.314,0.00579966618473013,0.00579966618473013
42.315,0.004991812470212441,0.004991812470212441
42.315999999999995,0.0037081049394109477,0.0037081049394109477
42.317,0.0026495208468524873,0.0026495208468524873
42.318,0.002348554700566695,0.002348554700566695
42.318999999999996,0.0029528660695179692,0.0029528660695179692
42.32,0.004149358693672423,0.004149358693672423
42.321,0.0052617986489033805,0.0052617986489033805
42.321999999999996,0.005494826719433772,0.005494826719433772
42.323,0.004244346919523184,0.004244346919523184
42.324,0.001367023935093999,0.001367023935093999
42.324999999999996,0.0026899427738667396,-0.0026899427738667396
42.326,0.0069551323628211726,-0.0069551323628211726
42.327,0.010188228874004336,-0.010188228874004336
42.327999999999996,0.011253276760881056,-0.011253276760881056
42.329,0.009495382516911928,-0.009495382516911928
42.33,0.004998615993760358,-0.004998615993760358
42.330999999999996,0.0013654415395144715,0.0013654415395144715
42.332,0.008126798105867715,0.008126798105867715
42.333,0.013598300474012946,0.013598300474012946
42.333999999999996,0.016341458476496238,0.016341458476496238
42.335,0.015579035938378243,0.015579035938378243
42.336,0.011428668017130056,0.011428668017130056
42.336999999999996,0.004883390901587721,0.004883390901587721
42.338,0.00245920353354911,-0.00245920353354911
42.339,0.00884079294473204,-0.00884079294473204
42.339999999999996,0.012827266776336364,-0.012827266776336364
42.341,0.0136898320324116,-0.0136898320324116
42.342,0.01156928158441903,-0.01156928158441903
42.342999999999996,0.0073778723908224176,-0.0073778723908224176
42.344,0.0024752249033003593,-0.0024752249033003593
42.345,0.001774787388556577,0.001774787388556577
42.346,0.004422689757029359,0.004422689757029359
42.347,0.00519373002745293,0.00519373002745293
42.348,0.004509040502333443,0.004509040502333443
42.349,0.0032664704392326264,0.0032664704392326264
42.35,0.00246042599191777,0.00246042599191777
42.351,0.0027748285483281607,0.0027748285483281607
42.352,0.004293687456706097,0.004293687456706097
42.353,0.006435374431328359,0.006435374431328359
42.354,0.00814118465856448,0.00814118465856448
42.355,0.008260582458007258,0.008260582458007258
42.356,0.006004068875019351,0.006004068875019351
42.357,0.0013046653922815254,0.0013046653922815254
42.358,0.005047676802564812,-0.005047676802564812
42.359,0.01156356215868764,-0.01156356215868764
42.36,0.016471822772043006,-0.016471822772043006
42.361,0.018274879251478204,-0.018274879251478204
42.362,0.016265014698411833,-0.016265014698411833
42.363,0.010826868315768439,-0.010826868315768439
42.364,0.0034117671428313926,-0.0034117671428313926
42.365,0.00382937513525092,0.00382937513525092
42.366,0.008657617994009052,0.008657617994009052
42.367,0.009421551969145552,0.009421551969145552
42.368,0.005588023772984237,0.005588023772984237
42.369,0.0020428943693483457,-0.0020428943693483457
42.37,0.011515700623365759,-0.011515700623365759
42.370999999999995,0.020246049779801645,-0.020246049779801645
42.372,0.02574262350077288,-0.02574262350077288
42.373,0.026308298873846746,-0.026308298873846746
42.373999999999995,0.02151003127796827,-0.02151003127796827
42.375,0.012279033775668644,-0.012279033775668644
42.376,0.0006187267617408065,-0.0006187267617408065
42.376999999999995,0.01098003972521722,0.01098003972521722
42.378,0.0202285789370079,0.0202285789370079
42.379,0.025620712022061815,0.025620712022061815
42.379999999999995,0.0267337418894491,0.0267337418894491
42.381,0.024178268607864473,0.024178268607864473
42.382,0.019243822627984575,0.019243822627984575
42.382999999999996,0.013385825457030168,0.013385825457030168
42.384,0.007744301289777277,0.007744301289777277
42.385,0.002861502177060166,0.002861502177060166
42.385999999999996,0.001316440116684424,-0.001316440116684424
42.387,0.005179447048766298,-0.005179447048766298
42.388,0.009059709803513113,-0.009059709803513113
42.388999999999996,0.012880074772525398,-0.012880074772525398
42.39,0.016004558184548368,-0.016004558184548368
42.391,0.017372890785848076,-0.017372890785848076
42.391999999999996,0.015888599169794602,-0.015888599169794602
42.393,0.010924465913430019,-0.010924465913430019
42.394,0.002750089029068043,-0.002750089029068043
42.394999999999996,0.007302180868524385,0.007302180868524385
42.396,0.01703514139075092,0.01703514139075092
42.397,0.02392539574166183,0.02392539574166183
42.397999999999996,0.025853677463356057,0.025853677463356057
42.399,0.02179625734172713,0.02179625734172713
42.4,0.012241230445051375,0.012241230445051375
42.400999999999996,0.0008303309066473823,-0.0008303309066473823
42.402,0.014422872564934432,-0.014422872564934432
42.403,0.02533820719687996,-0.02533820719687996
42.403999999999996,0.031079193512828535,-0.031079193512828535
42.405,0.030564449475295862,-0.030564449475295862
42.406,0.024425639416250405,-0.024425639416250405
42.407,0.0147877865979626,-0.0147877865979626
42.408,0.004597291663994513,-0.004597291663994513
42.409,0.003292041169604511,0.003292041169604511
42.41,0.006986141568278603,0.006986141568278603
42.411,0.006097281013077633,0.006097281013077633
42.412,0.0018007261245200806,0.0018007261245200806
42.413,0.003608875135508158,-0.003608875135508158
42.414,0.007510314494269196,-0.007510314494269196
42.415,0.007836340609232977,-0.007836340609232977
42.416,0.0037567180410955437,-0.0037567180410955437
42.417,0.004051532572434929,0.004051532572434929
42.418,0.01362342982646671,0.01362342982646671
42.419,0.022331234296376134,0.022331234296376134
42.42,0.0277033707495202,0.0277033707495202
42.421,0.02816977172173888,0.02816977172173888
42.422,0.023500692236065643,0.023500692236065643
42.423,0.014815380614769665,0.014815380614769665
42.424,0.004182067882143493,0.004182067882143493
42.425,0.006038390262559083,-0.006038390262559083
42.426,0.013879470652184188,-0.013879470652184188
42.427,0.01826676757416973,-0.01826676757416973
42.428,0.019186006205304543,-0.019186006205304543
42.429,0.017501915949579942,-0.017501915949579942
42.43,0.014527622667388213,-0.014527622667388213
42.431,0.011519715684345556,-0.011519715684345556
42.431999999999995,0.009282216722214385,-0.009282216722214385
42.433,0.008004681068969417,-0.008004681068969417
42.434,0.007360721935252777,-0.007360721935252777
42.434999999999995,0.00679224103566659,-0.00679224103566659
42.436,0.0058394712049943485,-0.0058394712049943485
42.437,0.004370549972316298,-0.004370549972316298
42.437999999999995,0.0026166513891583264,-0.0026166513891583264
42.439,0.0010071668047726687,-0.0010071668047726687
42.44,0.00011196913984571327,0.00011196913984571327
42.440999999999995,0.0007405457572657128,0.0007405457572657128
42.442,0.0013344878944064834,0.0013344878944064834
42.443,0.0026919969130029687,0.0026919969130029687
42.443999999999996,0.00563639533042404,0.00563639533042404
42.445,0.01060697376280318,0.01060697376280318
42.446,0.017320182966253494,0.017320182966253494
42.446999999999996,0.02465312077895863,0.02465312077895863
42.448,0.030830113720370464,0.030830113720370464
42.449,0.03388517574850225,0.03388517574850225
42.449999999999996,0.03226705310385639,0.03226705310385639
42.451,0.025389149530625717,0.025389149530625717
42.452,0.013929817559419761,0.013929817559419761
42.452999999999996,0.0002384760054162672,-0.0002384760054162672
42.454,0.014492761744327199,-0.014492761744327199
42.455,0.02615158228761566,-0.02615158228761566
42.455999999999996,0.03320293408682901,-0.03320293408682901
42.457,0.03483739388159532,-0.03483739388159532
42.458,0.031615375512141636,-0.031615375512141636
42.458999999999996,0.025216118204777437,-0.025216118204777437
42.46,0.017853784476226972,-0.017853784476226972
42.461,0.011555931297035102,-0.011555931297035102
42.461999999999996,0.00754378564549765,-0.00754378564549765
42.463,0.005916825999053441,-0.005916825999053441
42.464,0.005738692548580161,-0.005738692548580161
42.464999999999996,0.0054836371657684116,-0.0054836371657684116
42.466,0.0036799372156480856,-0.0036799372156480856
42.467,0.0004789809347527835,0.0004789809347527835
42.467999999999996,0.006771285506981685,0.006771285506981685
42.469,0.013959114204148118,0.013959114204148118
42.47,0.020173145667389918,0.020173145667389918
42.471,0.02353683886770786,0.02353683886770786
42.472,0.022815230885525548,0.022815230885525548
42.473,0.017865112833522174,0.017865112833522174
42.474,0.009731921023245226,0.009731921023245226
42.475,0.0003594980398583687,0.0003594980398583687
42.476,0.007989983132081574,-0.007989983132081574
42.477,0.01341216847096712,-0.01341216847096712
42.478,0.014909649996371397,-0.014909649996371397
42.479,0.012637739588159657,-0.012637739588159657
42.48,0.0077761488027657715,-0.0077761488027657715
42.481,0.0020831100778010946,-0.0020831100778010946
42.482,0.0027064699459732407,0.0027064699459732407
42.483,0.0054298697394444175,0.0054298697394444175
42.484,0.005808799788281913,0.005808799788281913
42.485,0.004429202326412143,0.004429202326412143
42.486,0.002411532280252428,0.002411532280252428
42.487,0.0009026440591932614,0.0009026440591932614
42.488,0.0005808700887222352,0.0005808700887222352
42.489,0.0013584473363270114,0.0013584473363270114
42.49,0.0023935603220256686,0.0023935603220256686
42.491,0.0024133524441183815,0.0024133524441183815
42.492,0.00023770970378651405,0.00023770970378651405
42.493,0.004680412829529197,-0.004680412829529197
42.494,0.011893820305918972,-0.011893820305918972
42.495,0.019919859595112433,-0.019919859595112433
42.495999999999995,0.026556978015076872,-0.026556978015076872
42.497,0.029479759440650895,-0.029479759440650895
42.498,0.026939934136734282,-0.026939934136734282
42.498999999999995,0.018361342440803466,-0.018361342440803466
42.5,0.004643112524331808,-0.004643112524331808
42.501,0.011931473547883039,0.011931473547883039
42.501999999999995,0.028169110959105875,0.028169110959105875
42.503,0.04070267585083192,0.04070267585083192
42.504,0.04679546642994681,0.04679546642994681
42.504999999999995,0.045002808204286676,0.045002808204286676
42.506,0.03552254612000496,0.03552254612000496
42.507,0.020152161412889835,0.020152161412889835
42.507999999999996,0.0018740975908645154,0.0018740975908645154
42.509,0.01581699381287208,-0.01581699381287208
42.51,0.029674593616247986,-0.029674593616247986
42.510999999999996,0.03736807562341153,-0.03736807562341153
42.512,0.03791309168438005,-0.03791309168438005
42.513,0.031786537276238515,-0.031786537276238515
42.513999999999996,0.020726187198818045,-0.020726187198818045
42.515,0.007284520554805415,-0.007284520554805415
42.516,0.005747937542090677,0.005747937542090677
42.516999999999996,0.015919108039587685,0.015919108039587685
42.518,0.0215748782586993,0.0215748782586993
42.519,0.02212041262407302,0.02212041262407302
42.519999999999996,0.018048871832950748,0.018048871832950748
42.521,0.010750867384691167,0.010750867384691167
42.522,0.002158134453064199,0.002158134453064199
42.522999999999996,0.005698049224188971,-0.005698049224188971
42.524,0.011122054607221075,-0.011122054607221075
42.525,0.013096423073239011,-0.013096423073239011
42.525999999999996,0.011465923244220898,-0.011465923244220898
42.527,0.0069297256016696875,-0.0069297256016696875
42.528,0.0008473721836518391,-0.0008473721836518391
42.528999999999996,0.005096908083158521,0.005096908083158521
42.53,0.009296202209989711,0.009296202209989711
42.531,0.010598433929579733,0.010598433929579733
42.532,0.00857309052343999,0.00857309052343999
42.533,0.0036055740205986017,0.0036055740205986017
42.534,0.0032022599676751846,-0.0032022599676751846
42.535,0.010300513327752808,-0.010300513327752808
42.536,0.016062820804933563,-0.016062820804933563
42.537,0.019170445043821722,-0.019170445043821722
42.538,0.01891617544044823,-0.01891617544044823
42.539,0.015356684121711464,-0.015356684121711464
42.54,0.009281040671519698,-0.009281040671519698
42.541,0.002009239032105679,-0.002009239032105679
42.542,0.004924472177080265,0.004924472177080265
42.543,0.010123426203514864,0.010123426203514864
42.544,0.012631688372350382,0.012631688372350382
42.545,0.012121814705365294,0.012121814705365294
42.546,0.008932563661336466,0.008932563661336466
42.547,0.003959344538907157,0.003959344538907157
42.548,0.0015669161611746166,-0.0015669161611746166
42.549,0.006355955906538433,-0.006355955906538433
42.55,0.00932736411005874,-0.00932736411005874
42.551,0.009819415982855776,-0.009819415982855776
42.552,0.007702565727593622,-0.007702565727593622
42.553,0.0033848045091890017,-0.0033848045091890017
42.554,0.0022831995097202344,0.0022831995097202344
42.555,0.008179448112668243,0.008179448112668243
42.556,0.013125033472215712,0.013125033472215712
42.556999999999995,0.01610429286389299,0.01610429286389299
42.558,0.016454211811797615,0.016454211811797615
42.559,0.013991499975435959,0.013991499975435959
42.559999999999995,0.009054552278563412,0.009054552278563412
42.561,0.0024501623169822535,0.0024501623169822535
42.562,0.004689246861919725,-0.004689246861919725
42.562999999999995,0.011114893194699497,-0.011114893194699497
42.564,0.015699245574196986,-0.015699245574196986
42.565,0.017654779731234485,-0.017654779731234485
42.565999999999995,0.016687345976292005,-0.016687345976292005
42.567,0.01304944092127728,-0.01304944092127728
42.568,0.007480041796302829,-0.007480041796302829
42.568999999999996,0.0010437986479514168,-0.0010437986479514168
42.57,0.00509350521288874,0.00509350521288874
42.571,0.009901028877970666,0.009901028877970666
42.571999999999996,0.012676432709547164,0.012676432709547164
42.573,0.013155183626893042,0.013155183626893042
42.574,0.01151683469165278,0.01151683469165278
42.574999999999996,0.00829635154602654,0.00829635154602654
42.576,0.0042314334413229805,0.0042314334413229805
42.577,8.931077251344932e-05,8.931077251344932e-05
42.577999999999996,0.003484149548780301,-0.003484149548780301
42.579,0.006062544541928946,-0.006062544541928946
42.58,0.007472690420034682,-0.007472690420034682
42.580999999999996,0.007771256461821858,-0.007771256461821858
42.582,0.00718418846870493,-0.00718418846870493
42.583,0.006032377432274837,-0.006032377432274837
42.583999999999996,0.004662117810086087,-0.004662117810086087
42.585,0.0033893541030965684,-0.0033893541030965684
42.586,0.0024576843359414326,-0.0024576843359414326
42.586999999999996,0.0020057920972356906,-0.0020057920972356906
42.588,0.002041904254598349,-0.002041904254598349
42.589,0.002429184796174396,-0.002429184796174396
42.589999999999996,0.0028923773766495204,-0.0028923773766495204
42.591,0.003057714982672132,-0.003057714982672132
42.592,0.0025321480693157087,-0.0025321480693157087
42.592999999999996,0.0010147830212430952,-0.0010147830212430952
42.594,0.001582727561699093,0.001582727561699093
42.595,0.005042650958124184,0.005042650958124184
42.596,0.008812774007500001,0.008812774007500001
42.597,0.012070182000845552,0.012070182000845552
42.598,0.013880483283727851,0.013880483283727851
42.599,0.013425592780197419,0.013425592780197419
42.6,0.010246193310716079,0.010246193310716079
42.601,0.004430951881153261,0.004430951881153261
42.602,0.0033099643247209865,-0.0033099643247209865
42.603,0.011723874958129576,-0.011723874958129576
42.604,0.019244024781078974,-0.019244024781078974
42.605,0.02432152706844545,-0.02432152706844545
42.606,0.025781927630275106,-0.025781927630275106
42.607,0.023115208203841598,-0.023115208203841598
42.608,0.016621204360477548,-0.016621204360477548
42.609,0.007368196204546358,-0.007368196204546358
42.61,0.0030289563058124125,0.0030289563058124125
42.611,0.012757164091066576,0.012757164091066576
42.612,0.020193055520436393,0.020193055520436393
42.613,0.024234679526126613,0.024234679526126613
42.614,0.02449830045639739,0.02449830045639739
42.615,0.021339415318125738,0.021339415318125738
42.616,0.01570424804838675,0.01570424804838675
42.617,0.008860920948362465,0.008860920948362465
42.618,0.0020866433781752494,0.0020866433781752494
42.619,0.0036078447750825977,-0.0036078447750825977
42.62,0.00765238719409149,-0.00765238719409149
42.620999999999995,0.009958449125363509,-0.009958449125363509
42.622,0.01083328258993307,-0.01083328258993307
42.623,0.010805819055183245,-0.010805819055183245
42.623999999999995,0.010421718305423993,-0.010421718305423993
42.625,0.010066725340182867,-0.010066725340182867
42.626,0.009863583979870678,-0.009863583979870678
42.626999999999995,0.009663653685283886,-0.009663653685283886
42.628,0.009127424860765915,-0.009127424860765915
42.629,0.007865370864063151,-0.007865370864063151
42.629999999999995,0.005597003789313269,-0.005597003789313269
42.631,0.0022837015629551998,-0.0022837015629551998
42.632,0.0018008991239520733,0.0018008991239520733
42.632999999999996,0.006083231792438223,0.006083231792438223
42.634,0.009785454591488395,0.009785454591488395
42.635,0.012085688027570773,0.012085688027570773
42.635999999999996,0.012308741624907735,0.012308741624907735
42.637,0.010104711811892023,0.010104711811892023
42.638,0.0055729123865135505,0.0055729123865135505
42.638999999999996,0.0007022543463982375,-0.0007022543463982375
42.64,0.0077197709399363604,-0.0077197709399363604
42.641,0.014228874731632172,-0.014228874731632172
42.641999999999996,0.018965402394139453,-0.018965402394139453
42.643,0.020910237134714817,-0.020910237134714817
42.644,0.01951353664302622,-0.01951353664302622
42.644999999999996,0.014832236938195596,-0.014832236938195596
42.646,0.007545235280042206,-0.007545235280042206
42.647,0.0011625226790012756,0.0011625226790012756
42.647999999999996,0.009825312463129536,0.009825312463129536
42.649,0.01698309039702843,0.01698309039702843
42.65,0.02146580635423206,0.02146580635423206
42.650999999999996,0.022612701100866207,0.022612701100866207
42.652,0.020379950054097748,0.020379950054097748
42.653,0.015317668662246677,0.015317668662246677
42.653999999999996,0.0084287749610541,0.0084287749610541
42.655,0.0009489325524647274,0.0009489325524647274
42.656,0.005898178547346112,-0.005898178547346112
42.657,0.01111593780600098,-0.01111593780600098
42.658,0.01407944038469497,-0.01407944038469497
42.659,0.014590966519980817,-0.014590966519980817
42.66,0.012850766686238555,-0.012850766686238555
42.661,0.009365522542858464,-0.009365522542858464
42.662,0.004825214905723856,-0.004825214905723856
42.663,2.2404280239563398e-05,2.2404280239563398e-05
42.664,0.004479090401002522,0.004479090401002522
42.665,0.007975381863059697,0.007975381863059697
42.666,0.01012092253857099,0.01012092253857099
42.667,0.010729122584773619,0.010729122584773619
42.668,0.00981934157141398,0.00981934157141398
42.669,0.007597701458066998,0.007597701458066998
42.67,0.0044166802180711316,0.0044166802180711316
42.671,0.0007158681097701761,0.0007158681097701761
42.672,0.003048454941778166,-0.003048454941778166
42.673,0.006471378065133627,-0.006471378065133627
42.674,0.00924864262042667,-0.00924864262042667
42.675,0.01119385016901355,-0.01119385016901355
42.676,0.01221994281173551,-0.01221994281173551
42.677,0.012294819319226047,-0.012294819319226047
42.678,0.011393081649222115,-0.011393081649222115
42.679,0.009470791719224199,-0.009470791719224199
42.68,0.006483895649970256,-0.006483895649970256
42.681,0.00245393304424115,-0.00245393304424115
42.681999999999995,0.002438083709859816,0.002438083709859816
42.683,0.00776851269159211,0.00776851269159211
42.684,0.012845226804819273,0.012845226804819273
42.684999999999995,0.01677534550237643,0.01677534550237643
42.686,0.018634928360017157,0.018634928360017157
42.687,0.017711001747408993,0.017711001747408993
42.687999999999995,0.013751084715461557,0.013751084715461557
42.689,0.007137032717479614,0.007137032717479614
42.69,0.0010914879811525324,-0.0010914879811525324
42.690999999999995,0.00940173869481378,-0.00940173869481378
42.692,0.01610224512572105,-0.01610224512572105
42.693,0.019769173115822887,-0.019769173115822887
42.693999999999996,0.01964608206895062,-0.01964608206895062
42.695,0.015891705475978877,-0.015891705475978877
42.696,0.00958457498981318,-0.00958457498981318
42.696999999999996,0.0024612658638080106,-0.0024612658638080106
42.698,0.003552657492919172,0.003552657492919172
42.699,0.006889509674344876,0.006889509674344876
42.699999999999996,0.006800678353765712,0.006800678353765712
42.701,0.0035852496993877985,0.0035852496993877985
42.702,0.001495452157728534,-0.001495452157728534
42.702999999999996,0.006603121598916762,-0.006603121598916762
42.704,0.009896761342368244,-0.009896761342368244
42.705,0.010119891777018572,-0.010119891777018572
42.705999999999996,0.0070134984894321874,-0.0070134984894321874
42.707,0.0014169969064561914,-0.0014169969064561914
42.708,0.004984151499452698,0.004984151499452698
42.708999999999996,0.010192134125927605,0.010192134125927605
42.71,0.012546038127453406,0.012546038127453406
42.711,0.011278433405504181,0.011278433405504181
42.711999999999996,0.006795472690688902,0.006795472690688902
42.713,0.0005819083337234627,0.0005819083337234627
42.714,0.005247957580968571,-0.005247957580968571
42.714999999999996,0.008616831681553265,-0.008616831681553265
42.716,0.008158487458416271,-0.008158487458416271
42.717,0.0036828303541774866,-0.0036828303541774866
42.717999999999996,0.0037208319683029257,0.0037208319683029257
42.719,0.01198112561923557,0.01198112561923557
42.72,0.018653737410634166,0.018653737410634166
42.721,0.021653711197067573,0.021653711197067573
42.722,0.019882847218217137,0.019882847218217137
42.723,0.013557858584551986,0.013557858584551986
42.724,0.004140627321776087,0.004140627321776087
42.725,0.0061018902671751,-0.0061018902671751
42.726,0.014765021668800586,-0.014765021668800586
42.727,0.019990257838527824,-0.019990257838527824
42.728,0.020956096370469867,-0.020956096370469867
42.729,0.01803429722385844,-0.01803429722385844
42.73,0.012580918676897025,-0.012580918676897025
42.731,0.00644792428463081,-0.00644792428463081
42.732,0.0013849579150045084,-0.0013849579150045084
42.733,0.001474015255680017,0.001474015255680017
42.734,0.0018837869547865783,0.0018837869547865783
42.735,0.00045297987269059183,0.00045297987269059183
42.736,0.001661984963741991,-0.001661984963741991
42.737,0.0032113159042384057,-0.0032113159042384057
42.738,0.003292615992030189,-0.003292615992030189
42.739,0.0016335176260379477,-0.0016335176260379477
42.74,0.001363322231767649,0.001363322231767649
42.741,0.0048054019883899835,0.0048054019883899835
42.742,0.0076408268048444965,0.0076408268048444965
42.743,0.009007563821025383,0.009007563821025383
42.744,0.008481396010707234,0.008481396010707234
42.745,0.00615091557415202,0.00615091557415202
42.745999999999995,0.002517688881990228,0.002517688881990228
42.747,0.0017164720587835073,-0.0017164720587835073
42.748,0.005878895391209533,-0.005878895391209533
42.748999999999995,0.009482115522192656,-0.009482115522192656
42.75,0.012258365763933098,-0.012258365763933098
42.751,0.014082682836876352,-0.014082682836876352
42.751999999999995,0.01484521668014701,-0.01484521668014701
42.753,0.01435479833963205,-0.01435479833963205
42.754,0.012339482482445962,-0.012339482482445962
42.754999999999995,0.008562381827319988,-0.008562381827319988
42.756,0.0030123827877612357,-0.0030123827877612357
42.757,0.00391569857929406,0.00391569857929406
42.757999999999996,0.011347903250898865,0.011347903250898865
42.759,0.018030694539658693,0.018030694539658693
42.76,0.022606213321296687,0.022606213321296687
42.760999999999996,0.023993661046398163,0.023993661046398163
42.762,0.02175353811229971,0.02175353811229971
42.763,0.016299594317895058,0.016299594317895058
42.763999999999996,0.008861934961387404,0.008861934961387404
42.765,0.0011837476823080438,0.0011837476823080438
42.766,0.004972459981167612,-0.004972459981167612
42.766999999999996,0.00835868160654292,-0.00835868160654292
42.768,0.008637860636151117,-0.008637860636151117
42.769,0.00649932404713084,-0.00649932404713084
42.769999999999996,0.0034362921902193868,-0.0034362921902193868
42.771,0.0012409941935247549,-0.0012409941935247549
42.772,0.001373162661735458,-0.001373162661735458
42.772999999999996,0.004410109433938774,-0.004410109433938774
42.774,0.00977050837437974,-0.00977050837437974
42.775,0.01582156597208683,-0.01582156597208683
42.775999999999996,0.020355575580472365,-0.020355575580472365
42.777,0.02129721097851812,-0.02129721097851812
42.778,0.01741941332454217,-0.01741941332454217
42.778999999999996,0.008832909875508874,-0.008832909875508874
42.78,0.002921144762638377,0.002921144762638377
42.781,0.01522338034067752,0.01522338034067752
42.782,0.02507967155729874,0.02507967155729874
42.783,0.029967741403240405,0.029967741403240405
42.784,0.02856924566279872,0.02856924566279872
42.785,0.021161951376913304,0.021161951376913304
42.786,0.009550844643995684,0.009550844643995684
42.787,0.0034403039903409473,-0.0034403039903409473
42.788,0.014760228223685643,-0.014760228223685643
42.789,0.021963282975073915,-0.021963282975073915
42.79,0.023836164929519996,-0.023836164929519996
42.791,0.020640805146633297,-0.020640805146633297
42.792,0.013920270059682964,-0.013920270059682964
42.793,0.005950905946948402,-0.005950905946948402
42.794,0.0009716705176310525,0.0009716705176310525
42.795,0.005185112990584349,0.005185112990584349
42.796,0.006058228303550397,0.006058228303550397
42.797,0.004035141368830192,0.004035141368830192
42.798,0.00034666255099913637,0.00034666255099913637
42.799,0.0034852825793493685,-0.0034852825793493685
42.8,0.0061683076538768845,-0.0061683076538768845
42.801,0.007012137023625013,-0.007012137023625013
42.802,0.00604627396856969,-0.00604627396856969
42.803,0.0038735746626145993,-0.0038735746626145993
42.804,0.0013436690138520816,-0.0013436690138520816
42.805,0.000813526062474421,0.000813526062474421
42.806,0.002252181754225973,0.002252181754225973
42.806999999999995,0.0030810008931245075,0.0030810008931245075
42.808,0.003728990054884213,0.003728990054884213
42.809,0.004676418742337432,0.004676418742337432
42.809999999999995,0.006170987904050785,0.006170987904050785
42.811,0.008051250211829713,0.008051250211829713
42.812,0.00975385804761684,0.00975385804761684
42.812999999999995,0.010506592243590457,0.010506592243590457
42.814,0.009634227034051169,0.009634227034051169
42.815,0.006857690973558891,0.006857690973558891
42.815999999999995,0.0024663725739182732,0.0024663725739182732
42.817,0.0027108829233801245,-0.0027108829233801245
42.818,0.00753559023427615,-0.00753559023427615
42.818999999999996,0.010913616740614602,-0.010913616740614602
42.82,0.012148021736712615,-0.012148021736712615
42.821,0.011162770981100923,-0.011162770981100923
42.821999999999996,0.008514374297389918,-0.008514374297389918
42.823,0.0051850764172328605,-0.0051850764172328605
42.824,0.002231367557089596,-0.002231367557089596
42.824999999999996,0.00041557035618801754,-0.00041557035618801754
42.826,4.434498322197873e-05,4.434498322197873e-05
42.827,0.00048570668169719807,-0.00048570668169719807
42.827999999999996,0.0012415740992567186,-0.0012415740992567186
42.829,0.0014014201661320988,-0.0014014201661320988
42.83,0.0004505870048987752,-0.0004505870048987752
42.830999999999996,0.0015725204913052612,0.0015725204913052612
42.832,0.004051822151962821,0.004051822151962821
42.833,0.006011320687187447,0.006011320687187447
42.833999999999996,0.006503719535020333,0.006503719535020333
42.835,0.005028299739045389,0.005028299739045389
42.836,0.0018158191205172361,0.0018158191205172361
42.836999999999996,0.002143056396847325,-0.002143056396847325
42.838,0.005362393176479281,-0.005362393176479281
42.839,0.0063494041399687635,-0.0063494041399687635
42.839999999999996,0.004159658324225057,-0.004159658324225057
42.841,0.0011749569266975618,0.0011749569266975618
42.842,0.008510102558110794,0.008510102558110794
42.842999999999996,0.01582006825996077,0.01582006825996077
42.844,0.02075047007251969,0.02075047007251969
42.845,0.021334358878862782,0.021334358878862782
42.846,0.01664821917646649,0.01664821917646649
42.847,0.007190608518759854,0.007190608518759854
42.848,0.005155043507631362,-0.005155043507631362
42.849,0.01758415434269974,-0.01758415434269974
42.85,0.027135651854277937,-0.027135651854277937
42.851,0.03153183270188902,-0.03153183270188902
42.852,0.02983725565746287,-0.02983725565746287
42.853,0.022731321582199242,-0.022731321582199242
42.854,0.0123062955621527,-0.0123062955621527
42.855,0.0014491652469302146,-0.0014491652469302146
42.856,0.007004846073905489,0.007004846073905489
42.857,0.011088597089453084,0.011088597089453084
42.858,0.010241394281977297,0.010241394281977297
42.859,0.005410235111881356,0.005410235111881356
42.86,0.001307372419737871,-0.001307372419737871
42.861,0.007357496404540601,-0.007357496404540601
42.862,0.010537012493021967,-0.010537012493021967
42.863,0.009660512847761418,-0.009660512847761418
42.864,0.0048844495727865525,-0.0048844495727865525
42.865,0.0024000911876874546,0.0024000911876874546
42.866,0.010055739886449621,0.010055739886449621
42.867,0.015899294102280435,0.015899294102280435
42.868,0.018384100559748814,0.018384100559748814
42.869,0.017048702328408803,0.017048702328408803
42.87,0.012599273246320923,0.012599273246320923
42.870999999999995,0.0066161921364267535,0.0066161921364267535
42.872,0.0009965079404185844,0.0009965079404185844
42.873,0.002675335708538832,-0.002675335708538832
42.873999999999995,0.0036211031646108003,-0.0036211031646108003
42.875,0.002072348762397337,-0.002072348762397337
42.876,0.0008690569736725649,0.0008690569736725649
42.876999999999995,0.0036519429602060154,0.0036519429602060154
42.878,0.004827213152045499,0.004827213152045499
42.879,0.003542137657966903,0.003542137657966903
42.879999999999995,0.00018292406605385366,-0.00018292406605385366
42.881,0.005477152090559527,-0.005477152090559527
42.882,0.01092079590064485,-0.01092079590064485
42.882999999999996,0.015014289467745122,-0.015014289467745122
42.884,0.016653839100398145,-0.016653839100398145
42.885,0.015458383195876843,-0.015458383195876843
42.885999999999996,0.01185005133196987,-0.01185005133196987
42.887,0.006877076846982265,-0.006877076846982265
42.888,0.0018538804191954561,-0.0018538804191954561
42.888999999999996,0.002051194676155635,0.002051194676155635
42.89,0.004141667690025397,0.004141667690025397
42.891,0.004332851679344078,0.004332851679344078
42.891999999999996,0.0030776965823654254,0.0030776965823654254
42.893,0.0011267248277431051,0.0011267248277431051
42.894,0.0007752071104477554,-0.0007752071104477554
42.894999999999996,0.0021382349006649516,-0.0021382349006649516
42.896,0.0028350215215539533,-0.0028350215215539533
42.897,0.003039019024819489,-0.003039019024819489
42.897999999999996,0.003034263347595765,-0.003034263347595765
42.899,0.0029880428522669174,-0.0029880428522669174
42.9,0.0027918259765520592,-0.0027918259765520592
42.900999999999996,0.0020482477874582588,-0.0020482477874582588
42.902,0.0002229700402272762,-0.0002229700402272762
42.903,0.003088263692390526,0.003088263692390526
42.903999999999996,0.007879362489669242,0.007879362489669242
42.905,0.01355824573119999,0.01355824573119999
42.906,0.018965556117906745,0.018965556117906745
42.907,0.022613593121808828,0.022613593121808828
42.908,0.023092978309929978,0.023092978309929978
42.909,0.01952890172750946,0.01952890172750946
42.91,0.01193955647426728,0.01193955647426728
42.911,0.0013685333908896077,0.0013685333908896077
42.912,0.01027362432572113,-0.01027362432572113
42.913,0.02063504742357204,-0.02063504742357204
42.914,0.027506359966752544,-0.027506359966752544
42.915,0.029399370006476234,-0.029399370006476234
42.916,0.025952316330857955,-0.025952316330857955
42.917,0.018040392264585807,-0.018040392264585807
42.918,0.007555350966551946,-0.007555350966551946
42.919,0.0030850861693578926,0.0030850861693578926
42.92,0.011558569659894859,0.011558569659894859
42.921,0.01621443665443791,0.01621443665443791
42.922,0.01644602068033816,0.01644602068033816
42.923,0.012763862440057002,0.012763862440057002
42.924,0.0065650934500955166,0.0065650934500955166
42.925,0.0003172803270159417,-0.0003172803270159417
42.926,0.006141935632038272,-0.006141935632038272
42.927,0.009706889911152384,-0.009706889911152384
42.928,0.010595207960491893,-0.010595207960491893
42.929,0.009166491587282262,-0.009166491587282262
42.93,0.006323213594028464,-0.006323213594028464
42.931,0.0031476885735933478,-0.0031476885735933478
42.931999999999995,0.0005373610042050922,-0.0005373610042050922
42.933,0.0010449641979224699,0.0010449641979224699
42.934,0.0016371837590685658,0.0016371837590685658
42.934999999999995,0.0016583883704491733,0.0016583883704491733
42.936,0.0016647830786518515,0.0016647830786518515
42.937,0.002080242300720932,0.002080242300720932
42.937999999999995,0.003002809856229656,0.003002809856229656
42.939,0.004155560638456422,0.004155560638456422
42.94,0.0049951386350171705,0.0049951386350171705
42.940999999999995,0.00493372515407261,0.00493372515407261
42.942,0.0035900107996470728,0.0035900107996470728
42.943,0.0009752121925630913,0.0009752121925630913
42.943999999999996,0.0024562603518386134,-0.0024562603518386134
42.945,0.005914071506858456,-0.005914071506858456
42.946,0.00850455514072067,-0.00850455514072067
42.946999999999996,0.009512381510115471,-0.009512381510115471
42.948,0.008637577380261531,-0.008637577380261531
42.949,0.0061083750496602396,-0.0061083750496602396
42.949999999999996,0.0026309787786688186,-0.0026309787786688186
42.951,0.0008095876856725028,0.0008095876856725028
42.952,0.003235625305091321,0.003235625305091321
42.952999999999996,0.0039610849556502865,0.0039610849556502865
42.954,0.0027875044936675826,0.0027875044936675826
42.955,5.475762897184146e-05,5.475762897184146e-05
42.955999999999996,0.003463482667122111,-0.003463482667122111
42.957,0.006781789873353565,-0.006781789873353565
42.958,0.008971219638568936,-0.008971219638568936
42.958999999999996,0.009393291867828845,-0.009393291867828845
42.96,0.007836098436744734,-0.007836098436744734
42.961,0.0045245232688047605,-0.0045245232688047605
42.961999999999996,1.7921591422536958e-05,-1.7921591422536958e-05
42.963,0.00495846619466976,0.00495846619466976
42.964,0.009688002942984397,0.009688002942984397
42.964999999999996,0.013590646191454137,0.013590646191454137
42.966,0.01627729505850523,0.01627729505850523
42.967,0.017535217313760586,0.017535217313760586
42.967999999999996,0.01727531014586132,0.01727531014586132
42.969,0.015482506802117296,0.015482506802117296
42.97,0.012202425957070082,0.012202425957070082
42.971,0.007574485539328274,0.007574485539328274
42.972,0.0018940308910792465,0.0018940308910792465
42.973,0.004334637195836884,-0.004334637195836884
42.974,0.01039690738850084,-0.01039690738850084
42.975,0.015446021170765456,-0.015446021170765456
42.976,0.018659258302845507,-0.018659258302845507
42.977,0.019437333488054674,-0.019437333488054674
42.978,0.017587812249751693,-0.017587812249751693
42.979,0.01342828873409224,-0.01342828873409224
42.98,0.007763141264073251,-0.007763141264073251
42.981,0.0017243770979933264,-0.0017243770979933264
42.982,0.00348925146122087,0.00348925146122087
42.983,0.0069049498328061934,0.0069049498328061934
42.984,0.00801568370177036,0.00801568370177036
42.985,0.006894768669077411,0.006894768669077411
42.986,0.004149639958463955,0.004149639958463955
42.987,0.0007287201997988919,0.0007287201997988919
42.988,0.0023586771124051507,-0.0023586771124051507
42.989,0.004322562456086138,-0.004322562456086138
42.99,0.004787355732466012,-0.004787355732466012
42.991,0.003846424692854579,-0.003846424692854579
42.992,0.0019686387817258615,-0.0019686387817258615
42.993,0.0002009191576896802,0.0002009191576896802
42.994,0.0020700543731251306,0.0020700543731251306
42.995,0.0032760527655664676,0.0032760527655664676
42.995999999999995,0.0037508855801389757,0.0037508855801389757
42.997,0.0036607439006999198,0.0036607439006999198
42.998,0.0032549402931998104,0.0032549402931998104
42.998999999999995,0.0026947894220267677,0.0026947894220267677
43.0,0.0019411368162920262,0.0019411368162920262
43.001,0.0007559140043056245,0.0007559140043056245
43.001999999999995,0.0011736435585113947,-0.0011736435585113947
43.003,0.0040325059926230805,-0.0040325059926230805
43.004,0.007680343416230491,-0.007680343416230491
43.004999999999995,0.011550736331658849,-0.011550736331658849
43.006,0.014711205416284918,-0.014711205416284918
43.007,0.016092030313859005,-0.016092030313859005
43.007999999999996,0.014826117601442467,-0.014826117601442467
43.009,0.010590908878654081,-0.010590908878654081
43.01,0.0038270902725563954,-0.0038270902725563954
43.010999999999996,0.004262940141996551,0.004262940141996551
43.012,0.011967332193712033,0.011967332193712033
43.013,0.017513774910521307,0.017513774910521307
43.013999999999996,0.019587336184581743,0.019587336184581743
43.015,0.017752970019431772,0.017752970019431772
43.016,0.012635605601653834,0.012635605601653834
43.016999999999996,0.005779505177842635,0.005779505177842635
43.018,0.0007907615599961868,-0.0007907615599961868
43.019,0.005184962048766148,-0.005184962048766148
43.019999999999996,0.006248639637099289,-0.006248639637099289
43.021,0.003955284785262886,-0.003955284785262886
43.022,0.0005493393632083232,0.0005493393632083232
43.022999999999996,0.005282761071430268,0.005282761071430268
43.024,0.00805071218328208,0.00805071218328208
43.025,0.007172184386064974,0.007172184386064974
43.025999999999996,0.0020744540877629214,0.0020744540877629214
43.027,0.006439446448289969,-0.006439446448289969
43.028,0.01635000422361718,-0.01635000422361718
43.028999999999996,0.0249724678836754,-0.0249724678836754
43.03,0.02973848878689891,-0.02973848878689891
43.031,0.028968700778736558,-0.028968700778736558
43.032,0.022394462845277994,-0.022394462845277994
43.033,0.011262625621842829,-0.011262625621842829
43.034,0.0020124966840691524,0.0020124966840691524
43.035,0.01454246572961942,0.01454246572961942
43.036,0.023786214895422264,0.023786214895422264
43.037,0.028242615542028175,0.028242615542028175
43.038,0.02780030892043203,0.02780030892043203
43.039,0.02364359390207226,0.02364359390207226
43.04,0.017758171464300018,0.017758171464300018
43.041,0.012210191500327934,0.012210191500327934
43.042,0.008443521964823945,0.008443521964823945
43.043,0.006829941147587807,0.006829941147587807
43.044,0.006618712721605756,0.006618712721605756
43.045,0.006295429271322604,0.006295429271322604
43.046,0.004220895321113183,0.004220895321113183
43.047,0.0006742760380790575,-0.0006742760380790575
43.048,0.008383029953891117,-0.008383029953891117
43.049,0.01768418260649826,-0.01768418260649826
43.05,0.02643108021032856,-0.02643108021032856
43.051,0.03218094684583149,-0.03218094684583149
43.052,0.03296442911080929,-0.03296442911080929
43.053,0.027946229885307004,-0.027946229885307004
43.054,0.017761019359176854,-0.017761019359176854
43.055,0.00441241226660456,-0.00441241226660456
43.056,0.009237987485225427,0.009237987485225427
43.056999999999995,0.02023554581565135,0.02023554581565135
43.058,0.026318649111135475,0.026318649111135475
43.059,0.026491593997641262,0.026491593997641262
43.059999999999995,0.02122268114341143,0.02122268114341143
43.061,0.012226642064660224,0.012226642064660224
43.062,0.001918799272488295,0.001918799272488295
43.062999999999995,0.007277344400679693,-0.007277344400679693
43.064,0.013555600868394174,-0.013555600868394174
43.065,0.016109544013740925,-0.016109544013740925
43.065999999999995,0.015185827784988903,-0.015185827784988903
43.067,0.011832168883204206,-0.011832168883204206
43.068,0.007456125914492439,-0.007456125914492439
43.068999999999996,0.0033566469936180524,-0.0033566469936180524
43.07,0.00037848433321043716,-0.00037848433321043716
43.071,0.0012207638560920236,0.0012207638560920236
43.071999999999996,0.0016848614276714568,0.0016848614276714568
43.073,0.0015239903684124926,0.0015239903684124926
43.074,0.0012422200514952567,0.0012422200514952567
43.074999999999996,0.001135551585750486,0.001135551585750486
43.076,0.0012257305430348909,0.0012257305430348909
43.077,0.0013323940031322607,0.0013323940031322607
43.077999999999996,0.0012295264239832928,0.0012295264239832928
43.079,0.0008031173164862969,0.0008031173164862969
43.08,0.0001346897012427729,0.0001346897012427729
43.080999999999996,0.0005257032795991475,-0.0005257032795991475
43.082,0.0008811279746444779,-0.0008811279746444779
43.083,0.0007448942710896929,-0.0007448942710896929
43.083999999999996,0.00015758854028140434,-0.00015758854028140434
43.085,0.0005946605110931622,0.0005946605110931622
43.086,0.0010766217780916812,0.0010766217780916812
43.086999999999996,0.0008805224363925754,0.0008805224363925754
43.088,0.00018887993118969358,-0.00018887993118969358
43.089,0.0019999897908665925,-0.0019999897908665925
43.089999999999996,0.0041044676852472995,-0.0041044676852472995
43.091,0.005876121656679385,-0.005876121656679385
43.092,0.006729787931964112,-0.006729787931964112
43.092999999999996,0.006336044311627834,-0.006336044311627834
43.094,0.004745325785910134,-0.004745325785910134
43.095,0.002368093245617103,-0.002368093245617103
43.096,0.00018585137638874442,0.00018585137638874442
43.097,0.0023479581207136824,0.0023479581207136824
43.098,0.003814708301730343,0.003814708301730343
43.099,0.0046598409452851515,0.0046598409452851515
43.1,0.005281304687466283,0.005281304687466283
43.101,0.006194944574079148,0.006194944574079148
43.102,0.007752359815766542,0.007752359815766542
43.103,0.009899096855355428,0.009899096855355428
43.104,0.012083909510377392,0.012083909510377392
43.105,0.01337903944142798,0.01337903944142798
43.106,0.012791859900794508,0.012791859900794508
43.107,0.009668676107473908,0.009668676107473908
43.108,0.004042910830578779,0.004042910830578779
43.109,0.003216399155376369,-0.003216399155376369
43.11,0.010540941585815412,-0.010540941585815412
43.111,0.01607286970437669,-0.01607286970437669
43.112,0.018235105823554674,-0.018235105823554674
43.113,0.016279949592959878,-0.016279949592959878
43.114,0.010623838158111265,-0.010623838158111265
43.115,0.002833448726936856,-0.002833448726936856
43.116,0.004763006700390993,0.004763006700390993
43.117,0.009740480049732412,0.009740480049732412
43.118,0.010320203583850733,0.010320203583850733
43.119,0.005956385766591944,0.005956385766591944
43.12,0.002428702696731216,-0.002428702696731216
43.120999999999995,0.012650406325195086,-0.012650406325195086
43.122,0.021858431952474156,-0.021858431952474156
43.123,0.027348913758816495,-0.027348913758816495
43.123999999999995,0.027344960624286926,-0.027344960624286926
43.125,0.02150698606987688,-0.02150698606987688
43.126,0.011019288123627055,-0.011019288123627055
43.126999999999995,0.0017665140564135646,0.0017665140564135646
43.128,0.01401189812851207,0.01401189812851207
43.129,0.023178838671722254,0.023178838671722254
43.129999999999995,0.027682136587820882,0.027682136587820882
43.131,0.027218308015945356,0.027218308015945356
43.132,0.022694994384799848,0.022694994384799848
43.132999999999996,0.01581636756411254,0.01581636756411254
43.134,0.00848596321477099,0.00848596321477099
43.135,0.002234340116493466,0.002234340116493466
43.135999999999996,0.0021475783299081804,-0.0021475783299081804
43.137,0.004674583404367698,-0.004674583404367698
43.138,0.005949922129691522,-0.005949922129691522
43.138999999999996,0.006779322894374732,-0.006779322894374732
43.14,0.007779784013695354,-0.007779784013695354
43.141,0.009132203363804554,-0.009132203363804554
43.141999999999996,0.010558243637731904,-0.010558243637731904
43.143,0.011507437314811284,-0.011507437314811284
43.144,0.011457432482876864,-0.011457432482876864
43.144999999999996,0.010189846292040939,-0.010189846292040939
43.146,0.007920551689343507,-0.007920551689343507
43.147,0.005228277388724992,-0.005228277388724992
43.147999999999996,0.002812311057286705,-0.002812311057286705
43.149,0.001183817567018612,-0.001183817567018612
43.15,0.0004261482516124221,-0.0004261482516124221
43.150999999999996,0.00013470690862671972,-0.00013470690862671972
43.152,0.0004244750418688575,0.0004244750418688575
43.153,0.0019886940765863424,0.0019886940765863424
43.153999999999996,0.004929977080303333,0.004929977080303333
43.155,0.008995749869444344,0.008995749869444344
43.156,0.01327805852570806,0.01327805852570806
43.157,0.016448721483700714,0.016448721483700714
43.158,0.01719604769380506,0.01719604769380506
43.159,0.014715486042610911,0.014715486042610911
43.16,0.009074536749643555,0.009074536749643555
43.161,0.001306095995203544,0.001306095995203544
43.162,0.006825460293175835,-0.006825460293175835
43.163,0.013325706904953183,-0.013325706904953183
43.164,0.016580142822063798,-0.016580142822063798
43.165,0.01586771055085131,-0.01586771055085131
43.166,0.011598700071368699,-0.011598700071368699
43.167,0.005188550345108397,-0.005188550345108397
43.168,0.001396237889738476,0.001396237889738476
43.169,0.006269076816738533,0.006269076816738533
43.17,0.00821665633937896,0.00821665633937896
43.171,0.007051733208861148,0.007051733208861148
43.172,0.0036060787819204524,0.0036060787819204524
43.173,0.0006287253188538091,-0.0006287253188538091
43.174,0.004079710489358997,-0.004079710489358997
43.175,0.005678732332753668,-0.005678732332753668
43.176,0.005242128149654122,-0.005242128149654122
43.177,0.003504147252849962,-0.003504147252849962
43.178,0.0017907528084735226,-0.0017907528084735226
43.179,0.001453288057959994,-0.001453288057959994
43.18,0.0032729607535785382,-0.0032729607535785382
43.181,0.0070632570897748576,-0.0070632570897748576
43.181999999999995,0.011630953039767666,-0.011630953039767666
43.183,0.01512963365766575,-0.01512963365766575
43.184,0.015696879668715188,-0.015696879668715188
43.184999999999995,0.012158367753460016,-0.012158367753460016
43.186,0.004548376717067916,-0.004548376717067916
43.187,0.005749717870267577,0.005749717870267577
43.187999999999995,0.016314557028262476,0.016314557028262476
43.189,0.024367791566866713,0.024367791566866713
43.19,0.02761415147866408,0.02761415147866408
43.190999999999995,0.024969869452869914,0.024969869452869914
43.192,0.016939348619313347,0.016939348619313347
43.193,0.005511456540745998,0.005511456540745998
43.193999999999996,0.00639814881096775,-0.00639814881096775
43.195,0.01578580203874849,-0.01578580203874849
43.196,0.02041785662156789,-0.02041785662156789
43.196999999999996,0.019443476903561685,-0.019443476903561685
43.198,0.013580902311959898,-0.013580902311959898
43.199,0.004835447246501798,-0.004835447246501798
43.199999999999996,0.004144175219061631,0.004144175219061631
43.201,0.010856636882937046,0.010856636882937046
43.202,0.01363752804347966,0.01363752804347966
43.202999999999996,0.012047256582130414,0.012047256582130414
43.204,0.0068663740646211086,0.0068663740646211086
43.205,0.00026169413036920917,-0.00026169413036920917
43.205999999999996,0.007393192715250371,-0.007393192715250371
43.207,0.012855004119416999,-0.012855004119416999
43.208,0.015647594291610327,-0.015647594291610327
43.208999999999996,0.015580830315687327,-0.015580830315687327
43.21,0.013145821353067888,-0.013145821353067888
43.211,0.009214694676056134,-0.009214694676056134
43.211999999999996,0.0047049568493137475,-0.0047049568493137475
43.213,0.0003338544442485562,-0.0003338544442485562
43.214,0.003469157313408707,0.003469157313408707
43.214999999999996,0.006500387950037831,0.006500387950037831
43.216,0.008642523144563758,0.008642523144563758
43.217,0.00974555438347107,0.00974555438347107
43.217999999999996,0.009604699790731001,0.009604699790731001
43.219,0.008055720171820538,0.008055720171820538
43.22,0.005142258938075801,0.005142258938075801
43.221,0.0012641065087753906,0.0012641065087753906
43.222,0.0027891984623918055,-0.0027891984623918055
43.223,0.005974244207734252,-0.005974244207734252
43.224,0.007282998769149121,-0.007282998769149121
43.225,0.006096881732270978,-0.006096881732270978
43.226,0.002473926918234928,-0.002473926918234928
43.227,0.00275590360533725,0.00275590360533725
43.228,0.008153751920030523,0.008153751920030523
43.229,0.012068546125613361,0.012068546125613361
43.23,0.013151805631903199,0.013151805631903199
43.231,0.010819742568109834,0.010819742568109834
43.232,0.00549579017700063,0.00549579017700063
43.233,0.0014674589981220545,-0.0014674589981220545
43.234,0.008180689990874498,-0.008180689990874498
43.235,0.012806906108344536,-0.012806906108344536
43.236,0.014153949181434684,-0.014153949181434684
43.237,0.01206735183755257,-0.01206735183755257
43.238,0.007482213247186808,-0.007482213247186808
43.239,0.0021071730009533203,-0.0021071730009533203
43.24,0.0021585603214278166,0.0021585603214278166
43.241,0.0038780347949015966,0.0038780347949015966
43.242,0.002573015603212129,0.002573015603212129
43.243,0.0011120064666375832,-0.0011120064666375832
43.244,0.005640736799087771,-0.005640736799087771
43.245,0.009135188406912556,-0.009135188406912556
43.245999999999995,0.01005497347644778,-0.01005497347644778
43.247,0.00776654004803401,-0.00776654004803401
43.248,0.0027977273605075347,-0.0027977273605075347
43.248999999999995,0.0033191983264554592,0.0033191983264554592
43.25,0.008568745391605119,0.008568745391605119
43.251,0.011160293706221848,0.011160293706221848
43.251999999999995,0.010176004259815208,0.010176004259815208
43.253,0.005927696199288032,0.005927696199288032
43.254,0.00011027206867523686,-0.00011027206867523686
43.254999999999995,0.005778752504591983,-0.005778752504591983
43.256,0.008964757504727663,-0.008964757504727663
43.257,0.008336930981229644,-0.008336930981229644
43.257999999999996,0.0038310311321395527,-0.0038310311321395527
43.259,0.003286469451257625,0.003286469451257625
43.26,0.010805369100637507,0.010805369100637507
43.260999999999996,0.01628347700005524,0.01628347700005524
43.262,0.017844923535536426,0.017844923535536426
43.263,0.01479582987984771,0.01479582987984771
43.263999999999996,0.007849490605311812,0.007849490605311812
43.265,0.0011139660244271232,-0.0011139660244271232
43.266,0.009669944477750608,-0.009669944477750608
43.266999999999996,0.01564066337638666,-0.01564066337638666
43.268,0.017786121639593602,-0.017786121639593602
43.269,0.016161994845814383,-0.016161994845814383
43.269999999999996,0.012027848887374628,-0.012027848887374628
43.271,0.0073445076968723716,-0.0073445076968723716
43.272,0.004040462109393325,-0.004040462109393325
43.272999999999996,0.0033054182609199723,-0.0033054182609199723
43.274,0.005157953205723756,-0.005157953205723756
43.275,0.008438167959223893,-0.008438167959223893
43.275999999999996,0.011228724719911714,-0.011228724719911714
43.277,0.011559588540757957,-0.011559588540757957
43.278,0.008153756868522072,-0.008153756868522072
43.278999999999996,0.0009562756777487509,-0.0009562756777487509
43.28,0.008738681666193068,0.008738681666193068
43.281,0.018613252535879792,0.018613252535879792
43.282,0.02600355109971315,0.02600355109971315
43.283,0.028712852278410583,0.028712852278410583
43.284,0.025699819462616406,0.025699819462616406
43.285,0.017423361664971562,0.017423361664971562
43.286,0.005737918211295749,0.005737918211295749
43.287,0.006623138546466531,-0.006623138546466531
43.288,0.016810463967058445,-0.016810463967058445
43.289,0.02263160368089577,-0.02263160368089577
43.29,0.02310385079054098,-0.02310385079054098
43.291,0.01863565785029127,-0.01863565785029127
43.292,0.010806796774881649,-0.010806796774881649
43.293,0.001840988370518117,-0.001840988370518117
43.294,0.006049352447128275,0.006049352447128275
43.295,0.011243086459782033,0.011243086459782033
43.296,0.013053570259467575,0.013053570259467575
43.297,0.011761990040973657,0.011761990040973657
43.298,0.008370285341913714,0.008370285341913714
43.299,0.004185747176693091,0.004185747176693091
43.3,0.0003873180164864122,0.0003873180164864122
43.301,0.0022907051174619795,-0.0022907051174619795
43.302,0.0036779796908386325,-0.0036779796908386325
43.303,0.004085439814860524,-0.004085439814860524
43.304,0.00408171648528392,-0.00408171648528392
43.305,0.004226312850501719,-0.004226312850501719
43.306,0.004855819768299236,-0.004855819768299236
43.306999999999995,0.005985834492682463,-0.005985834492682463
43.308,0.007341571418259148,-0.007341571418259148
43.309,0.008484132059216004,-0.008484132059216004
43.309999999999995,0.008972720184643934,-0.008972720184643934
43.311,0.008502196148027661,-0.008502196148027661
43.312,0.006976262569817942,-0.006976262569817942
43.312999999999995,0.004507683218209966,-0.004507683218209966
43.314,0.0013645527344552382,-0.0013645527344552382
43.315,0.002104406674326641,0.002104406674326641
43.315999999999995,0.005535237428024031,0.005535237428024031
43.317,0.00858939222330458,0.00858939222330458
43.318,0.010972061290669563,0.010972061290669563
43.318999999999996,0.012442256242881719,0.012442256242881719
43.32,0.012829052381651006,0.012829052381651006
43.321,0.012058495413180544,0.012058495413180544
43.321999999999996,0.010181973978259592,0.010181973978259592
43.323,0.007387735430603044,0.007387735430603044
43.324,0.003978804080706799,0.003978804080706799
43.324999999999996,0.00031351720317911326,0.00031351720317911326
43.326,0.0032762236717881095,-0.0032762236717881095
43.327,0.006558391169131064,-0.006558391169131064
43.327999999999996,0.009432166632045871,-0.009432166632045871
43.329,0.01189657042044653,-0.01189657042044653
43.33,0.013962060653016353,-0.013962060653016353
43.330999999999996,0.015539984263678981,-0.015539984263678981
43.332,0.016363692695252452,-0.016363692695252452
43.333,0.015993050391805493,-0.015993050391805493
43.333999999999996,0.013927865560587326,-0.013927865560587326
43.335,0.0098124345886473,-0.0098124345886473
43.336,0.0036684080519242775,-0.0036684080519242775
43.336999999999996,0.003934761733579442,0.003934761733579442
43.338,0.011858873456813225,0.011858873456813225
43.339,0.01857337493637579,0.01857337493637579
43.339999999999996,0.022511744702042976,0.022511744702042976
43.341,0.022520441883724332,0.022520441883724332
43.342,0.018263951288495246,0.018263951288495246
43.342999999999996,0.010442603252100197,0.010442603252100197
43.344,0.0007232674582154653,0.0007232674582154653
43.345,0.008632800329610646,-0.008632800329610646
43.346,0.015361069762623407,-0.015361069762623407
43.347,0.017838289992864187,-0.017838289992864187
43.348,0.015581475821679668,-0.015581475821679668
43.349,0.009432775050307126,-0.009432775050307126
43.35,0.001350849388123753,-0.001350849388123753
43.351,0.006148650361540003,0.006148650361540003
43.352,0.010745203265544156,0.010745203265544156
43.353,0.011029553256616937,0.011029553256616937
43.354,0.006956429686951866,0.006956429686951866
43.355,0.00011797322489228679,-0.00011797322489228679
43.356,0.007837487891701458,-0.007837487891701458
43.357,0.01357007337530852,-0.01357007337530852
43.358,0.015231994600698733,-0.015231994600698733
43.359,0.01195323303169091,-0.01195323303169091
43.36,0.004372286397800441,-0.004372286397800441
43.361,0.005535213611412302,0.005535213611412302
43.362,0.015041473325346569,0.015041473325346569
43.363,0.021480883289748596,0.021480883289748596
43.364,0.023037718569988357,0.023037718569988357
43.365,0.019262672715802717,0.019262672715802717
43.366,0.01116420146115198,0.01116420146115198
43.367,0.0008594936381796765,0.0008594936381796765
43.368,0.009089470803565725,-0.009089470803565725
43.369,0.016433432649910627,-0.016433432649910627
43.37,0.019845230325067128,-0.019845230325067128
43.370999999999995,0.01919918094758656,-0.01919918094758656
43.372,0.015456059987121816,-0.015456059987121816
43.373,0.010222707765644344,-0.010222707765644344
43.373999999999995,0.005158765553636226,-0.005158765553636226
43.375,0.0014423296298748903,-0.0014423296298748903
43.376,0.000529456042104644,0.000529456042104644
43.376999999999995,0.0011239245673458809,0.0011239245673458809
43.378,0.0011778314541414873,0.0011778314541414873
43.379,0.001559253935362045,0.001559253935362045
43.379999999999995,0.0027655786678666967,0.0027655786678666967
43.381,0.004711918547543486,0.004711918547543486
43.382,0.006782733237497716,0.006782733237497716
43.382999999999996,0.008113348686187034,0.008113348686187034
43.384,0.007978148458873981,0.007978148458873981
43.385,0.006122343784506128,0.006122343784506128
43.385999999999996,0.0028989933801142316,0.0028989933801142316
43.387,0.000847738350352153,-0.000847738350352153
43.388,0.004109093490264213,-0.004109093490264213
43.388999999999996,0.0061173635944339715,-0.0061173635944339715
43.39,0.006663841773415974,-0.006663841773415974
43.391,0.00619173970929617,-0.00619173970929617
43.391999999999996,0.00561210228274274,-0.00561210228274274
43.393,0.005900554363629918,-0.005900554363629918
43.394,0.007625187410384724,-0.007625187410384724
43.394999999999996,0.010594512368649403,-0.010594512368649403
43.396,0.013781771898208114,-0.013781771898208114
43.397,0.015586860877369367,-0.015586860877369367
43.397999999999996,0.014372288339742512,-0.014372288339742512
43.399,0.009100155906880318,-0.009100155906880318
43.4,0.00015557304016220356,0.00015557304016220356
43.400999999999996,0.012020825964292185,0.012020825964292185
43.402,0.024056469188941068,0.024056469188941068
43.403,0.03337453956682079,0.03337453956682079
43.403999999999996,0.037459133349944086,0.037459133349944086
43.405,0.03493554915545831,0.03493554915545831
43.406,0.02603583661070037,0.02603583661070037
43.407,0.01259909473266473,0.01259909473266473
43.408,0.002407859941092594,-0.002407859941092594
43.409,0.015708385381954525,-0.015708385381954525
43.41,0.024620331791032554,-0.024620331791032554
43.411,0.027765985125486194,-0.027765985125486194
43.412,0.02537073871522886,-0.02537073871522886
43.413,0.019068699617580648,-0.019068699617580648
43.414,0.011294110671680105,-0.011294110671680105
43.415,0.004469530270038515,-0.004469530270038515
43.416,0.0002611016054692992,-0.0002611016054692992
43.417,0.0008608682338027678,0.0008608682338027678
43.418,0.0003712479970683747,-0.0003712479970683747
43.419,0.0024250269734248982,-0.0024250269734248982
43.42,0.003619407541210406,-0.003619407541210406
43.421,0.002786120040287458,-0.002786120040287458
43.422,0.00029106466068310697,0.00029106466068310697
43.423,0.004805002947711187,0.004805002947711187
43.424,0.009233513419779323,0.009233513419779323
43.425,0.01190566221091743,0.01190566221091743
43.426,0.01161785678219002,0.01161785678219002
43.427,0.008080920467270665,0.008080920467270665
43.428,0.0020456000752107854,0.0020456000752107854
43.429,0.004928725909316929,-0.004928725909316929
43.43,0.010972148340137688,-0.010972148340137688
43.431,0.014490495571318195,-0.014490495571318195
43.431999999999995,0.014638948391749129,-0.014638948391749129
43.433,0.011531532417717313,-0.011531532417717313
43.434,0.006135077724460675,-0.006135077724460675
43.434999999999995,9.131231662748798e-05,9.131231662748798e-05
43.436,0.005666664660177294,0.005666664660177294
43.437,0.009498072960599006,0.009498072960599006
43.437999999999995,0.011098325099199167,0.011098325099199167
43.439,0.010564167718385782,0.010564167718385782
43.44,0.008364447734172609,0.008364447734172609
43.440999999999995,0.00505718212125651,0.00505718212125651
43.442,0.0010713838807006367,0.0010713838807006367
43.443,0.003351799147460192,-0.003351799147460192
43.443999999999996,0.008045120284575437,-0.008045120284575437
43.445,0.012701443074220048,-0.012701443074220048
43.446,0.016688269164596894,-0.016688269164596894
43.446999999999996,0.019017790261171088,-0.019017790261171088
43.448,0.01854015977979794,-0.01854015977979794
43.449,0.014331046562971066,-0.014331046562971066
43.449999999999996,0.006148553013698596,-0.006148553013698596
43.451,0.005220829803272314,0.005220829803272314
43.452,0.017895892438391382,0.017895892438391382
43.452999999999996,0.029201870320870845,0.029201870320870845
43.454,0.036301629882171636,0.036301629882171636
43.455,0.03699296026850593,0.03699296026850593
43.455999999999996,0.03042754776699342,0.03042754776699342
43.457,0.01750603477476822,0.01750603477476822
43.458,0.0007884212792295421,0.0007884212792295421
43.458999999999996,0.016093872501780324,-0.016093872501780324
43.46,0.029375986658029686,-0.029375986658029686
43.461,0.036177422399064296,-0.036177422399064296
43.461999999999996,0.035291105635846996,-0.035291105635846996
43.463,0.0274968444226919,-0.0274968444226919
43.464,0.01529673349856075,-0.01529673349856075
43.464999999999996,0.002151236777681181,-0.002151236777681181
43.466,0.00854690316190907,0.00854690316190907
43.467,0.014441023060435805,0.014441023060435805
43.467999999999996,0.014822266658419844,0.014822266658419844
43.469,0.01070399418486515,0.01070399418486515
43.47,0.004354341060909945,0.004354341060909945
43.471,0.0015422454859297392,-0.0015422454859297392
43.472,0.004807380654482757,-0.004807380654482757
43.473,0.004468751752267597,-0.004468751752267597
43.474,0.0010144238253362349,-0.0010144238253362349
43.475,0.0038663729134593224,0.0038663729134593224
43.476,0.00794929151790763,0.00794929151790763
43.477,0.009306785847133979,0.009306785847133979
43.478,0.007015368056374152,0.007015368056374152
43.479,0.0014977333491369624,0.0014977333491369624
43.48,0.005610320055829218,-0.005610320055829218
43.481,0.01201370414580785,-0.01201370414580785
43.482,0.01553619888471592,-0.01553619888471592
43.483,0.014854951501553136,-0.014854951501553136
43.484,0.009944475100913234,-0.009944475100913234
43.485,0.002087446228546102,-0.002087446228546102
43.486,0.006541113456190336,0.006541113456190336
43.487,0.013567359094287999,0.013567359094287999
43.488,0.01715361852676688,0.01715361852676688
43.489,0.01653394894396746,0.01653394894396746
43.49,0.012185679938812005,0.012185679938812005
43.491,0.005600481981432112,0.005600481981432112
43.492,0.0012473781487044075,-0.0012473781487044075
43.493,0.006543634225424267,-0.006543634225424267
43.494,0.009171082281317855,-0.009171082281317855
43.495,0.008974708077382647,-0.008974708077382647
43.495999999999995,0.006691508638958968,-0.006691508638958968
43.497,0.0035990948201065766,-0.0035990948201065766
43.498,0.001027574074276487,-0.001027574074276487
43.498999999999995,8.704566799281347e-05,8.704566799281347e-05
43.5,0.0005394528504029312,-0.0005394528504029312
43.501,0.002538063677811875,-0.002538063677811875
43.501999999999995,0.005111542643030449,-0.005111542643030449
43.503,0.007377796055265297,-0.007377796055265297
43.504,0.0086915523344264,-0.0086915523344264
43.504999999999995,0.008826688770064876,-0.008826688770064876
43.506,0.007966536926002141,-0.007966536926002141
43.507,0.006529614344307356,-0.006529614344307356
43.507999999999996,0.004921987273918199,-0.004921987273918199
43.509,0.0033310852016518676,-0.0033310852016518676
43.51,0.0016519069137360394,-0.0016519069137360394
43.510999999999996,0.0004235793370760059,0.0004235793370760059
43.512,0.0031944920703498476,0.0031944920703498476
43.513,0.006711257153523942,0.006711257153523942
43.513999999999996,0.010617971178164036,0.010617971178164036
43.515,0.014157355949406897,0.014157355949406897
43.516,0.016355847299079795,0.016355847299079795
43.516999999999996,0.016334365991457683,0.016334365991457683
43.518,0.013637005778525087,0.013637005778525087
43.519,0.008455952278216857,0.008455952278216857
43.519999999999996,0.0016623028612016012,0.0016623028612016012
43.521,0.005381949159464249,-0.005381949159464249
43.522,0.011179404224534823,-0.011179404224534823
43.522999999999996,0.01450978016662251,-0.01450978016662251
43.524,0.014768127987962365,-0.014768127987962365
43.525,0.012121816842710144,-0.012121816842710144
43.525999999999996,0.00743989452986729,-0.00743989452986729
43.527,0.0020232058497196568,-0.0020232058497196568
43.528,0.0027736102449485434,0.0027736102449485434
43.528999999999996,0.005907521616623831,0.005907521616623831
43.53,0.006891230213770078,0.006891230213770078
43.531,0.005854465811512923,0.005854465811512923
43.532,0.003424463449482298,0.003424463449482298
43.533,0.000484463666158143,0.000484463666158143
43.534,0.0020999724417759126,-0.0020999724417759126
43.535,0.0037002079813603676,-0.0037002079813603676
43.536,0.004035064066174806,-0.004035064066174806
43.537,0.003164603602584675,-0.003164603602584675
43.538,0.0014001676138540745,-0.0014001676138540745
43.539,0.0008155982417479788,0.0008155982417479788
43.54,0.003010001309664371,0.003010001309664371
43.541,0.004739094233172848,0.004739094233172848
43.542,0.0056112938800051936,0.0056112938800051936
43.543,0.005304577759527212,0.005304577759527212
43.544,0.00360742463889144,0.00360742463889144
43.545,0.0004943799224962281,0.0004943799224962281
43.546,0.003783358172458314,-0.003783358172458314
43.547,0.008638029784443654,-0.008638029784443654
43.548,0.013168678665167282,-0.013168678665167282
43.549,0.016300894432543064,-0.016300894432543064
43.55,0.01703444823956238,-0.01703444823956238
43.551,0.014741631574800495,-0.014741631574800495
43.552,0.00942348360322514,-0.00942348360322514
43.553,0.0018259119234827587,-0.0018259119234827587
43.554,0.006650049862867811,0.006650049862867811
43.555,0.014247270540578675,0.014247270540578675
43.556,0.019291916795047777,0.019291916795047777
43.556999999999995,0.020648065715171603,0.020648065715171603
43.558,0.01804479362903117,0.01804479362903117
43.559,0.012164059589233066,0.012164059589233066
43.559999999999995,0.0044501441280293255,0.0044501441280293255
43.561,0.0033078107304677705,-0.0033078107304677705
43.562,0.0094907574917073,-0.0094907574917073
43.562999999999995,0.013096301503823397,-0.013096301503823397
43.564,0.013970826189004986,-0.013970826189004986
43.565,0.01275270366100154,-0.01275270366100154
43.565999999999995,0.01055182362522301,-0.01055182362522301
43.567,0.00848386083275981,-0.00848386083275981
43.568,0.007230669155906376,-0.007230669155906376
43.568999999999996,0.006790525335058538,-0.006790525335058538
43.57,0.006514440129576863,-0.006514440129576863
43.571,0.0054199185131302,-0.0054199185131302
43.571999999999996,0.0026682541671602445,-0.0026682541671602445
43.573,0.001975904651805554,0.001975904651805554
43.574,0.007887260403955597,0.007887260403955597
43.574999999999996,0.013644629741722406,0.013644629741722406
43.576,0.01742517534042594,0.01742517534042594
43.577,0.01761386883596598,0.01761386883596598
43.577999999999996,0.013426258926443745,0.013426258926443745
43.579,0.00532179761984377,0.00532179761984377
43.58,0.0049583802297051924,-0.0049583802297051924
43.580999999999996,0.014777400144474912,-0.014777400144474912
43.582,0.021319398075392022,-0.021319398075392022
43.583,0.022427360097693937,-0.022427360097693937
43.583999999999996,0.017300459844092238,-0.017300459844092238
43.585,0.00682205346086854,-0.00682205346086854
43.586,0.006601526123727009,0.006601526123727009
43.586999999999996,0.019660155350182878,0.019660155350182878
43.588,0.029041404298546545,0.029041404298546545
43.589,0.03234788689019125,0.03234788689019125
43.589999999999996,0.02875676093716616,0.02875676093716616
43.591,0.01922635178887583,0.01922635178887583
43.592,0.0061940554287116594,0.0061940554287116594
43.592999999999996,0.007135508668215955,-0.007135508668215955
43.594,0.017691948090341303,-0.017691948090341303
43.595,0.02335994308265223,-0.02335994308265223
43.596,0.023484038409339943,-0.023484038409339943
43.597,0.018927623150898867,-0.018927623150898867
43.598,0.011696877797339272,-0.011696877797339272
43.599,0.004270133540693179,-0.004270133540693179
43.6,0.0011481980251202189,0.0011481980251202189
43.601,0.0032238659312435656,0.0032238659312435656
43.602,0.0017775808781418624,0.0017775808781418624
43.603,0.0022949014823959468,-0.0022949014823959468
43.604,0.007405372150738391,-0.007405372150738391
43.605,0.011811201837147274,-0.011811201837147274
43.606,0.014130870904091267,-0.014130870904091267
43.607,0.013687311090887664,-0.013687311090887664
43.608,0.01060134811478168,-0.01060134811478168
43.609,0.005645025143649928,-0.005645025143649928
43.61,6.28484045233616e-05,6.28484045233616e-05
43.611,0.005401028871300737,0.005401028871300737
43.612,0.009520557906981317,0.009520557906981317
43.613,0.01198362747442123,0.01198362747442123
43.614,0.01275821997503515,0.01275821997503515
43.615,0.012109764569303,0.012109764569303
43.616,0.010455561692328186,0.010455561692328186
43.617,0.008242016989144186,0.008242016989144186
43.618,0.0058761486744803,0.0058761486744803
43.619,0.0037071073161458632,0.0037071073161458632
43.62,0.0020275628180864386,0.0020275628180864386
43.620999999999995,0.001059887174399311,0.001059887174399311
43.622,0.0009089679649945313,0.0009089679649945313
43.623,0.0014928878943078067,0.0014928878943078067
43.623999999999995,0.0024893343834105383,0.0024893343834105383
43.625,0.0033449962924177227,0.0033449962924177227
43.626,0.0033801212335215778,0.0033801212335215778
43.626999999999995,0.001984338583342285,0.001984338583342285
43.628,0.0011438298172116899,-0.0011438298172116899
43.629,0.005794365645362599,-0.005794365645362599
43.629999999999995,0.011167022208439167,-0.011167022208439167
43.631,0.01597617638270586,-0.01597617638270586
43.632,0.018743669809679408,-0.018743669809679408
43.632999999999996,0.01821773040520362,-0.01821773040520362
43.634,0.013801763726466484,-0.013801763726466484
43.635,0.005855466588271967,-0.005855466588271967
43.635999999999996,0.004246521772018469,0.004246521772018469
43.637,0.014349668037338212,0.014349668037338212
43.638,0.022012727668425894,0.022012727668425894
43.638999999999996,0.025140006677719786,0.025140006677719786
43.64,0.02258059974228874,0.02258059974228874
43.641,0.014518649732702314,0.014518649732702314
43.641999999999996,0.0025279616389114585,0.0025279616389114585
43.643,0.010745860503157224,-0.010745860503157224
43.644,0.022207764641175968,-0.022207764641175968
43.644999999999996,0.02908309647852776,-0.02908309647852776
43.646,0.029631380695557236,-0.029631380695557236
43.647,0.02361067543008318,-0.02361067543008318
43.647999999999996,0.012363823315957102,-0.012363823315957102
43.649,0.0015010123445611456,0.0015010123445611456
43.65,0.014754154433257291,0.014754154433257291
43.650999999999996,0.024344694428006533,0.024344694428006533
43.652,0.028148983328385103,0.028148983328385103
43.653,0.025475072440570592,0.025475072440570592
43.653999999999996,0.0171977975038845,0.0171977975038845
43.655,0.005497902775267585,0.005497902775267585
43.656,0.006718109164214496,-0.006718109164214496
43.657,0.016560319620517426,-0.016560319620517426
43.658,0.021865775482382048,-0.021865775482382048
43.659,0.021697297516668046,-0.021697297516668046
43.66,0.01651173699457785,-0.01651173699457785
43.661,0.00796813245055133,-0.00796813245055133
43.662,0.0015597048643754493,0.0015597048643754493
43.663,0.009627477033116895,0.009627477033116895
43.664,0.01434726626783797,0.01434726626783797
43.665,0.014833889304905078,0.014833889304905078
43.666,0.011361525109732705,0.011361525109732705
43.667,0.005202801920581531,0.005202801920581531
43.668,0.00179073693744405,-0.00179073693744405
43.669,0.007739220673326752,-0.007739220673326752
43.67,0.011256446837253778,-0.011256446837253778
43.671,0.011796702766598907,-0.011796702766598907
43.672,0.009734201735056512,-0.009734201735056512
43.673,0.006163156572566328,-0.006163156572566328
43.674,0.0024895657036295457,-0.0024895657036295457
43.675,5.264638323752382e-05,5.264638323752382e-05
43.676,0.0008069632745834195,0.0008069632745834195
43.677,0.00010747186632751271,-0.00010747186632751271
43.678,0.0018674366606738263,-0.0018674366606738263
43.679,0.003263290797114913,-0.003263290797114913
43.68,0.0031583894308073557,-0.0031583894308073557
43.681,0.0009370161878142494,-0.0009370161878142494
43.681999999999995,0.0032129097707836013,0.0032129097707836013
43.683,0.008286314338913017,0.008286314338913017
43.684,0.012734770765863936,0.012734770765863936
43.684999999999995,0.014950484551854697,0.014950484551854697
43.686,0.013809482690509236,0.013809482690509236
43.687,0.009095862999626479,0.009095862999626479
43.687999999999995,0.001659466013347864,0.001659466013347864
43.689,0.006760056497222004,-0.006760056497222004
43.69,0.014003582997764875,-0.014003582997764875
43.690999999999995,0.018120297137578765,-0.018120297137578765
43.692,0.01795922318500501,-0.01795922318500501
43.693,0.01353551924811969,-0.01353551924811969
43.693999999999996,0.006049178293640603,-0.006049178293640603
43.695,0.002457589431379974,0.002457589431379974
43.696,0.009702090120884903,0.009702090120884903
43.696999999999996,0.013834718480251902,0.013834718480251902
43.698,0.013971778689694386,0.013971778689694386
43.699,0.01041905351630642,0.01041905351630642
43.699999999999996,0.004517691636862064,0.004517691636862064
43.701,0.0018324751131794498,-0.0018324751131794498
43.702,0.006811082143689912,-0.006811082143689912
43.702999999999996,0.009263085208347647,-0.009263085208347647
43.704,0.009037470459465772,-0.009037470459465772
43.705,0.006968671119265063,-0.006968671119265063
43.705999999999996,0.0045127424229787095,-0.0045127424229787095
43.707,0.0031686703665286396,-0.0031686703665286396
43.708,0.003889158528144186,-0.003889158528144186
43.708999999999996,0.006689208024252842,-0.006689208024252842
43.71,0.010592970208194911,-0.010592970208194911
43.711,0.013942609681227647,-0.013942609681227647
43.711999999999996,0.014967201278318873,-0.014967201278318873
43.713,0.012418306975863196,-0.012418306975863196
43.714,0.006053553790495275,-0.006053553790495275
43.714999999999996,0.003200679476058378,0.003200679476058378
43.716,0.013468330006168497,0.013468330006168497
43.717,0.022456131278649864,0.022456131278649864
43.717999999999996,0.028125244239777365,0.028125244239777365
43.719,0.02928156882708542,0.02928156882708542
43.72,0.02589347642471026,0.02589347642471026
43.721,0.019039856982208423,0.019039856982208423
43.722,0.010517486386872311,0.010517486386872311
43.723,0.002250865324117004,0.002250865324117004
43.724,0.004289609976711176,-0.004289609976711176
43.725,0.008465212098461006,-0.008465212098461006
43.726,0.01052437456337824,-0.01052437456337824
43.727,0.011336228662239815,-0.011336228662239815
43.728,0.011917789115823259,-0.011917789115823259
43.729,0.012942361266912124,-0.012942361266912124
43.73,0.01441981370343213,-0.01441981370343213
43.731,0.015672817838108435,-0.015672817838108435
43.732,0.015621151628728264,-0.015621151628728264
43.733,0.013269106964871212,-0.013269106964871212
43.734,0.008211228638458497,-0.008211228638458497
43.735,0.000958208672688451,-0.000958208672688451
43.736,0.007056587462519813,0.007056587462519813
43.737,0.01381870112329098,0.01381870112329098
43.738,0.017326627197290983,0.017326627197290983
43.739,0.016248364284070945,0.016248364284070945
43.74,0.01041971781725993,0.01041971781725993
43.741,0.0010079780641560764,0.0010079780641560764
43.742,0.009730128570228746,-0.009730128570228746
43.743,0.019036290598840867,-0.019036290598840867
43.744,0.024411446686196776,-0.024411446686196776
43.745,0.024319579772080987,-0.024319579772080987
43.745999999999995,0.018621468521338037,-0.018621468521338037
43.747,0.008610209921786396,-0.008610209921786396
43.748,0.0033558229954648434,0.0033558229954648434
43.748999999999995,0.014504923270797962,0.014504923270797962
43.75,0.022390065824909565,0.022390065824909565
43.751,0.025498021818688762,0.025498021818688762
43.751999999999995,0.023565376770385157,0.023565376770385157
43.753,0.017535028949153323,0.017535028949153323
43.754,0.009197487936762241,0.009197487936762241
43.754999999999995,0.0006490548773658263,0.0006490548773658263
43.756,0.006262026313073903,-0.006262026313073903
43.757,0.010347793960996823,-0.010347793960996823
43.757999999999996,0.011259826152531049,-0.011259826152531049
43.759,0.009426081139658917,-0.009426081139658917
43.76,0.005808240150885489,-0.005808240150885489
43.760999999999996,0.001582830612509327,-0.001582830612509327
43.762,0.0021508793357719164,0.0021508793357719164
43.763,0.00456731808072143,0.00456731808072143
43.763999999999996,0.0051962426408449025,0.0051962426408449025
43.765,0.003914419537343383,0.003914419537343383
43.766,0.0008942658608564041,0.0008942658608564041
43.766999999999996,0.0034485834476925582,-0.0034485834476925582
43.768,0.008491739203080871,-0.008491739203080871
43.769,0.013439228243959236,-0.013439228243959236
43.769999999999996,0.01738228386046198,-0.01738228386046198
43.771,0.01941526811849447,-0.01941526811849447
43.772,0.0188095765619656,-0.0188095765619656
43.772999999999996,0.015213245696306107,-0.015213245696306107
43.774,0.00881500696871342,-0.00881500696871342
43.775,0.0004040183277093288,-0.0004040183277093288
43.775999999999996,0.008722334575455343,0.008722334575455343
43.777,0.017004877085055107,0.017004877085055107
43.778,0.022971416670284975,0.022971416670284975
43.778999999999996,0.025593222898208038,0.025593222898208038
43.78,0.024541143085609955,0.024541143085609955
43.781,0.020257008529209388,0.020257008529209388
43.782,0.013811247135751801,0.013811247135751801
43.783,0.0065865712621219555,0.0065865712621219555
43.784,0.00011370542885714798,-0.00011370542885714798
43.785,0.005407190132012761,-0.005407190132012761
43.786,0.009013859109796653,-0.009013859109796653
43.787,0.011221682803977276,-0.011221682803977276
43.788,0.01265535987461273,-0.01265535987461273
43.789,0.013936390134231664,-0.013936390134231664
43.79,0.015361969904118216,-0.015361969904118216
43.791,0.01672484299873728,-0.01672484299873728
43.792,0.01734722836296423,-0.01734722836296423
43.793,0.016325661394605125,-0.016325661394605125
43.794,0.01290632154480781,-0.01290632154480781
43.795,0.006859258387104678,-0.006859258387104678
43.796,0.001286710570873235,0.001286710570873235
43.797,0.010245501439526846,0.010245501439526846
43.798,0.018232881936617217,0.018232881936617217
43.799,0.023418901235404233,0.023418901235404233
43.8,0.02444258953737929,0.02444258953737929
43.801,0.020832193297225264,0.020832193297225264
43.802,0.013198241105241218,0.013198241105241218
43.803,0.0031328720771062668,0.0031328720771062668
43.804,0.007164005497964199,-0.007164005497964199
43.805,0.015430439714440929,-0.015430439714440929
43.806,0.01990916383583997,-0.01990916383583997
43.806999999999995,0.019780187077033537,-0.019780187077033537
43.808,0.015344881776403148,-0.015344881776403148
43.809,0.007919056799581688,-0.007919056799581688
43.809999999999995,0.0005270203950573715,0.0005270203950573715
43.811,0.007878101394680936,0.007878101394680936
43.812,0.012396026885371416,0.012396026885371416
43.812999999999995,0.013122940125991302,0.013122940125991302
43.814,0.010073450208210053,0.010073450208210053
43.815,0.0041827944216402055,0.0041827944216402055
43.815999999999995,0.0029602302139180776,-0.0029602302139180776
43.817,0.009518359536140187,-0.009518359536140187
43.818,0.0138466043265978,-0.0138466043265978
43.818999999999996,0.014866982409906871,-0.014866982409906871
43.82,0.012298277546005456,-0.012298277546005456
43.821,0.006698588074923218,-0.006698588074923218
43.821999999999996,0.0006799545230985045,0.0006799545230985045
43.823,0.008186534810605538,0.008186534810605538
43.824,0.014150231348206182,0.014150231348206182
43.824999999999996,0.017259183926024123,0.017259183926024123
43.826,0.016857409368650784,0.016857409368650784
43.827,0.013092107609849097,0.013092107609849097
43.827999999999996,0.006874680114824747,0.006874680114824747
43.829,0.00034063070254112816,-0.00034063070254112816
43.83,0.006913065899951436,-0.006913065899951436
43.830999999999996,0.011422900769837797,-0.011422900769837797
43.832,0.013027781628508072,-0.013027781628508072
43.833,0.011672022594737635,-0.011672022594737635
43.833999999999996,0.008086683105375915,-0.008086683105375915
43.835,0.0035726933623291303,-0.0035726933623291303
43.836,0.00037918147070884134,0.00037918147070884134
43.836999999999996,0.0025270928784231128,0.0025270928784231128
43.838,0.0022481314914240837,0.0022481314914240837
43.839,0.00027338593026415646,-0.00027338593026415646
43.839999999999996,0.004101914346267498,-0.004101914346267498
43.841,0.007840437477417913,-0.007840437477417913
43.842,0.010069795497834454,-0.010069795497834454
43.842999999999996,0.009803072822002977,-0.009803072822002977
43.844,0.006811359954111726,-0.006811359954111726
43.845,0.0017143072346448842,-0.0017143072346448842
43.846,0.004197877579931865,0.004197877579931865
43.847,0.009357841185421741,0.009357841185421741
43.848,0.0124054189644203,0.0124054189644203
43.849,0.01260665549257606,0.01260665549257606
43.85,0.010070956047886104,0.010070956047886104
43.851,0.005695558556814929,0.005695558556814929
43.852,0.0008569900465289968,0.0008569900465289968
43.853,0.0030460307587926597,-0.0030460307587926597
43.854,0.005043813114613885,-0.005043813114613885
43.855,0.004889138766659439,-0.004889138766659439
43.856,0.0030958071497555178,-0.0030958071497555178
43.857,0.0007136644371941222,-0.0007136644371941222
43.858,0.0010768528009000398,0.0010768528009000398
43.859,0.0014049456831529525,0.0014049456831529525
43.86,2.7302923418297218e-05,2.7302923418297218e-05
43.861,0.002589366020089259,-0.002589366020089259
43.862,0.005449503650561682,-0.005449503650561682
43.863,0.007406927814992395,-0.007406927814992395
43.864,0.007601831316751164,-0.007601831316751164
43.865,0.005796006024171415,-0.005796006024171415
43.866,0.0024813268987143237,-0.0024813268987143237
43.867,0.0012821767483776586,0.0012821767483776586
43.868,0.004244090087360646,0.004244090087360646
43.869,0.005422686732324193,0.005422686732324193
43.87,0.00447824275023668,0.00447824275023668
43.870999999999995,0.0018609354472323896,0.0018609354472323896
43.872,0.001327828660606079,-0.001327828660606079
43.873,0.003719545103234783,-0.003719545103234783
43.873999999999995,0.0041773098455362544,-0.0041773098455362544
43.875,0.0022332373419951634,-0.0022332373419951634
43.876,0.0016945444416225578,0.0016945444416225578
43.876999999999995,0.006390941230600021,0.006390941230600021
43.878,0.010219287286557344,0.010219287286557344
43.879,0.011662831635471627,0.011662831635471627
43.879999999999995,0.009851496000793216,0.009851496000793216
43.881,0.004894056820019414,0.004894056820019414
43.882,0.002101373096560775,-0.002101373096560775
43.882999999999996,0.009332434006846552,-0.009332434006846552
43.884,0.01483850967889713,-0.01483850967889713
43.885,0.017096087250914348,-0.017096087250914348
43.885999999999996,0.01548263820938254,-0.01548263820938254
43.887,0.010462332704171384,-0.010462332704171384
43.888,0.0034387590324630574,-0.0034387590324630574
43.888999999999996,0.0036723033686059505,0.0036723033686059505
43.89,0.009009472627840614,0.009009472627840614
43.891,0.011292359592630303,0.011292359592630303
43.891999999999996,0.010149781271945584,0.010149781271945584
43.893,0.006162257530565986,0.006162257530565986
43.894,0.0006264451559177509,0.0006264451559177509
43.894999999999996,0.0048648231737948855,-0.0048648231737948855
43.896,0.008884152063982928,-0.008884152063982928
43.897,0.01053152974426134,-0.01053152974426134
43.897999999999996,0.009602468396308406,-0.009602468396308406
43.899,0.006540901764912036,-0.006540901764912036
43.9,0.0022261324010503024,-0.0022261324010503024
43.900999999999996,0.0023124833303885452,0.0023124833303885452
43.902,0.006153933257375225,0.006153933257375225
43.903,0.008648272278254227,0.008648272278254227
43.903999999999996,0.009464985795422237,0.009464985795422237
43.905,0.008555745987048653,0.008555745987048653
43.906,0.0060859922522563245,0.0060859922522563245
43.907,0.0023852586772449163,0.0023852586772449163
43.908,0.002063327245166407,-0.002063327245166407
43.909,0.006612318769033996,-0.006612318769033996
43.91,0.010463306557498948,-0.010463306557498948
43.911,0.012751108308890627,-0.012751108308890627
43.912,0.012717780417656626,-0.012717780417656626
43.913,0.009948765956393017,-0.009948765956393017
43.914,0.004598018940477464,-0.004598018940477464
43.915,0.0024934406789767494,0.0024934406789767494
43.916,0.009865971750806252,0.009865971750806252
43.917,0.01572440155038436,0.01572440155038436
43.918,0.01838846355744772,0.01838846355744772
43.919,0.016792637160454586,0.016792637160454586
43.92,0.010879044151423128,0.010879044151423128
43.921,0.0017396576190972755,0.0017396576190972755
43.922,0.008570752455516178,-0.008570752455516178
43.923,0.017529430090555766,-0.017529430090555766
43.924,0.022823586584716185,-0.022823586584716185
43.925,0.02301632921514946,-0.02301632921514946
43.926,0.01799415626024,-0.01799415626024
43.927,0.009045587059968488,-0.009045587059968488
43.928,0.0014710566814758713,0.0014710566814758713
43.929,0.010785179618783102,0.010785179618783102
43.93,0.016505948168411277,0.016505948168411277
43.931,0.017310447309126065,0.017310447309126065
43.931999999999995,0.01331695876206137,0.01331695876206137
43.933,0.006027535460852645,0.006027535460852645
43.934,0.0021427281789955926,-0.0021427281789955926
43.934999999999995,0.008603753707819805,-0.008603753707819805
43.936,0.011367497934202433,-0.011367497934202433
43.937,0.00962591006624192,-0.00962591006624192
43.937999999999995,0.003957579288976487,-0.003957579288976487
43.939,0.0038899329650947455,0.0038899329650947455
43.94,0.01156157092566267,0.01156157092566267
43.940999999999995,0.016815048668268377,0.016815048668268377
43.942,0.01817230293265561,0.01817230293265561
43.943,0.01530583935574001,0.01530583935574001
43.943999999999996,0.009056277805985037,0.009056277805985037
43.945,0.0010990067593374612,0.0010990067593374612
43.946,0.0066122650281821215,-0.0066122650281821215
43.946999999999996,0.012434469259612203,-0.012434469259612203
43.948,0.015468701090983564,-0.015468701090983564
43.949,0.015714291228010997,-0.015714291228010997
43.949999999999996,0.013920240679800924,-0.013920240679800924
43.951,0.011212900003631595,-0.011212900003631595
43.952,0.008647698755472728,-0.008647698755472728
43.952999999999996,0.006846991920139779,-0.006846991920139779
43.954,0.005843812563893008,-0.005843812563893008
43.955,0.005170069565413013,-0.005170069565413013
43.955999999999996,0.004137658687525004,-0.004137658687525004
43.957,0.002193895624615914,-0.002193895624615914
43.958,0.0007889177937517957,0.0007889177937517957
43.958999999999996,0.004400439583510656,0.004400439583510656
43.96,0.007798112836208475,0.007798112836208475
43.961,0.009992719970393462,0.009992719970393462
43.961999999999996,0.01020900097888418,0.01020900097888418
43.963,0.008189842780034037,0.008189842780034037
43.964,0.004332868449057643,0.004332868449057643
43.964999999999996,0.00039250545592493,-0.00039250545592493
43.966,0.004722856247513988,-0.004722856247513988
43.967,0.007481675195425123,-0.007481675195425123
43.967999999999996,0.007937205478825898,-0.007937205478825898
43.969,0.006020110161939895,-0.006020110161939895
43.97,0.0023324743448586314,-0.0023324743448586314
43.971,0.0020498381330068785,0.0020498381330068785
43.972,0.005911519262031356,0.005911519262031356
43.973,0.008256436126435418,0.008256436126435418
43.974,0.008574708855675833,0.008574708855675833
43.975,0.0069379338008926745,0.0069379338008926745
43.976,0.003903395841872935,0.003903395841872935
43.977,0.00027335349735220407,0.00027335349735220407
43.978,0.0031974921303499024,-0.0031974921303499024
43.979,0.006039897965058558,-0.006039897965058558
43.98,0.008170898119184207,-0.008170898119184207
43.981,0.00982730665718853,-0.00982730665718853
43.982,0.01136361438987224,-0.01136361438987224
43.983,0.012996189573824526,-0.012996189573824526
43.984,0.014596908224992098,-0.014596908224992098
43.985,0.015624229643867981,-0.015624229643867981
43.986,0.01523314758007431,-0.01523314758007431
43.987,0.012542719641471935,-0.012542719641471935
43.988,0.006981754523187955,-0.006981754523187955
43.989,0.0014008438179886674,0.0014008438179886674
43.99,0.01177270675363481,0.01177270675363481
43.991,0.022574824959769934,0.022574824959769934
43.992,0.031807766070953036,0.031807766070953036
43.993,0.03748599267904449,0.03748599267904449
43.994,0.038143514115327445,0.038143514115327445
43.995,0.0332509990905296,0.0332509990905296
43.995999999999995,0.023421684592921054,0.023421684592921054
43.997,0.010337043775360117,0.010337043775360117
43.998,0.003601467265645032,-0.003601467265645032
43.998999999999995,0.01581244763339992,-0.01581244763339992
44.0,0.02412967925506098,-0.02412967925506098
44.001,0.027298222674824332,-0.027298222674824332
44.001999999999995,0.025242475725732315,-0.025242475725732315
44.003,0.019038147959667226,-0.019038147959667226
44.004,0.010599927623176061,-0.010599927623176061
44.004999999999995,0.002172858289456682,-0.002172858289456682
44.006,0.004233398793621083,0.004233398793621083
44.007,0.007316497565496081,0.007316497565496081
44.007999999999996,0.006739265015245545,0.006739265015245545
44.009,0.0031169488312941833,0.0031169488312941833
44.01,0.002244767982559508,-0.002244767982559508
44.010999999999996,0.007770473403416808,-0.007770473403416808
44.012,0.012063750273178343,-0.012063750273178343
44.013,0.014253264736534136,-0.014253264736534136
44.013999999999996,0.01414482922460566,-0.01414482922460566
44.015,0.012153458347361779,-0.012153458347361779
44.016,0.009059917905750746,-0.009059917905750746
44.016999999999996,0.005689353649003842,-0.005689353649003842
44.018,0.0026285640821598647,-0.0026285640821598647
44.019,7.78164093979756e-05,-7.78164093979756e-05
44.019999999999996,0.0021196628001335454,0.0021196628001335454
44.021,0.004293994193081854,0.004293994193081854
44.022,0.006691614570302039,0.006691614570302039
44.022999999999996,0.009253809407912246,0.009253809407912246
44.024,0.011528047837298412,0.011528047837298412
44.025,0.012761245604331232,0.012761245604331232
44.025999999999996,0.01215562836332556,0.01215562836332556
44.027,0.009202899464545925,0.009202899464545925
44.028,0.0039744874806967095,0.0039744874806967095
44.028999999999996,0.0027501528668369495,-0.0027501528668369495
44.03,0.009587871137089334,-0.009587871137089334
44.031,0.014883026108107171,-0.014883026108107171
44.032,0.017179208502432902,-0.017179208502432902
44.033,0.01568811630986828,-0.01568811630986828
44.034,0.010599951931468248,-0.010599951931468248
44.035,0.0031191884728798023,-0.0031191884728798023
44.036,0.004809418219113862,0.004809418219113862
44.037,0.011021821765167753,0.011021821765167753
44.038,0.01375673476547641,0.01375673476547641
44.039,0.012192315403982183,0.012192315403982183
44.04,0.006728415565123006,0.006728415565123006
44.041,0.001082831879208976,-0.001082831879208976
44.042,0.008950136312317987,-0.008950136312317987
44.043,0.014486036605347233,-0.014486036605347233
44.044,0.015892895883801838,-0.015892895883801838
44.045,0.01248862348854853,-0.01248862348854853
44.046,0.004914959851978186,-0.004914959851978186
44.047,0.005034089234838846,0.005034089234838846
44.048,0.014912105342031537,0.014912105342031537
44.049,0.022299121102899708,0.022299121102899708
44.05,0.02545895591125201,0.02545895591125201
44.051,0.023784937494924493,0.023784937494924493
44.052,0.017911746307276124,0.017911746307276124
44.053,0.009474063077039772,0.009474063077039772
